timestamp,ECG,PCG
0.0,-0.004396006511021124,-0.05566625303348076
0.000125,-0.003907561343129888,-0.05566625303348076
0.00025,-0.004884451678912359,-0.05516774927497198
0.000375,-0.004396006511021124,-0.053709164203779615
0.0005,-0.004884451678912359,-0.05468770861863018
0.000625,-0.004396006511021124,-0.053709164203779615
0.00075,-0.004884451678912359,-0.053709164203779615
0.000875,-0.004396006511021124,-0.05468770861863018
0.001,-0.004884451678912359,-0.053709164203779615
0.001125,-0.004884451678912359,-0.053709164203779615
0.00125,-0.004884451678912359,-0.05516774927497198
0.001375,-0.004396006511021124,-0.056644797448331334
0.0015,-0.004884451678912359,-0.056644797448331334
0.001625,-0.004884451678912359,-0.05566625303348076
0.00175,-0.004884451678912359,-0.05762334186318191
0.001875,-0.004396006511021124,-0.056644797448331334
0.002,-0.004884451678912359,-0.056644797448331334
0.002125,-0.003907561343129888,-0.05712483810467312
0.00225,-0.004884451678912359,-0.056644797448331334
0.002375,-0.0034191161752386515,-0.05762334186318191
0.0025,-0.004884451678912359,-0.05956196759071606
0.002625,-0.004884451678912359,-0.06103901576407542
0.00275,-0.005372896846803595,-0.060540512005566635
0.002875,-0.004884451678912359,-0.05956196759071606
0.003,-0.005372896846803595,-0.060540512005566635
0.003125,-0.004884451678912359,-0.060540512005566635
0.00325,-0.006349787182586067,-0.06151905642041721
0.003375,-0.005372896846803595,-0.06151905642041721
0.0035,-0.006349787182586067,-0.06151905642041721
0.003625,-0.005372896846803595,-0.06151905642041721
0.00375,-0.006838232350477303,-0.062497600835267786
0.003875,-0.006838232350477303,-0.06347614525011835
0.004,-0.006838232350477303,-0.06347614525011835
0.004125,-0.006349787182586067,-0.06347614525011835
0.00425,-0.007326677518368539,-0.06445468966496894
0.004375,-0.007326677518368539,-0.06347614525011835
0.0045,-0.008792013022042248,-0.06347614525011835
0.004625,-0.008303567854151012,-0.06347614525011835
0.00475,-0.008792013022042248,-0.06347614525011835
0.004875,-0.009280458189933482,-0.06445468966496894
0.005,-0.009768903357824718,-0.06641177849467009
0.005125,-0.009280458189933482,-0.06739032290952066
0.00525,-0.010257348525715955,-0.06739032290952066
0.005375,-0.010257348525715955,-0.06739032290952066
0.0055,-0.01074579369360719,-0.06835040422220423
0.005625,-0.01074579369360719,-0.06739032290952066
0.00575,-0.01074579369360719,-0.06835040422220423
0.005875,-0.01074579369360719,-0.06835040422220423
0.006,-0.0122111291972809,-0.06835040422220423
0.006125,-0.011722684029389663,-0.06835040422220423
0.00625,-0.0122111291972809,-0.07080599681041416
0.006375,-0.011722684029389663,-0.07226458188160653
0.0065,-0.012699574365172134,-0.07128603746675596
0.006625,-0.0122111291972809,-0.07080599681041416
0.00675,-0.012699574365172134,-0.07226458188160653
0.006875,-0.0122111291972809,-0.07226458188160653
0.007,-0.012699574365172134,-0.0732431262964571
0.007125,-0.01318801953306337,-0.07226458188160653
0.00725,-0.014155864587958967,-0.07226458188160653
0.007375,-0.01318801953306337,-0.07276308564011531
0.0075,-0.014644309755850203,-0.07520021512615825
0.007625,-0.014155864587958967,-0.0771573039558594
0.00775,-0.014644309755850203,-0.07617875954100883
0.007875,-0.014644309755850203,-0.07520021512615825
0.008,-0.01610964525952391,-0.07617875954100883
0.008125,-0.01513275492374144,-0.07617875954100883
0.00825,-0.016598090427415148,-0.07617875954100883
0.008375,-0.015621200091632675,-0.0771573039558594
0.0085,-0.016598090427415148,-0.0771573039558594
0.008625,-0.01610964525952391,-0.07811738526854298
0.00875,-0.016598090427415148,-0.08007447409824413
0.008875,-0.01610964525952391,-0.08105301851309471
0.009,-0.016598090427415148,-0.08007447409824413
0.009125,-0.015621200091632675,-0.08007447409824413
0.00925,-0.015621200091632675,-0.08203156292794528
0.009375,-0.014644309755850203,-0.08251160358428707
0.0095,-0.01610964525952391,-0.08301010734279585
0.009625,-0.01513275492374144,-0.08301010734279585
0.00975,-0.014644309755850203,-0.08301010734279585
0.009875,-0.012699574365172134,-0.08301010734279585
0.01,-0.013667419420067732,-0.08398865175764643
0.010125,-0.011234238861498427,-0.084967196172497
0.01025,-0.011722684029389663,-0.08398865175764643
0.010375,-0.011234238861498427,-0.084967196172497
0.0105,-0.011234238861498427,-0.084967196172497
0.010625,-0.010257348525715955,-0.084967196172497
0.01075,-0.009768903357824718,-0.08398865175764643
0.010875,-0.008792013022042248,-0.084967196172497
0.011,-0.008792013022042248,-0.08544723682883879
0.011125,-0.007326677518368539,-0.084967196172497
0.01125,-0.008303567854151012,-0.08788436631488172
0.011375,-0.007326677518368539,-0.08788436631488172
0.0115,-0.007815122686259775,-0.08690582190003115
0.011625,-0.006838232350477303,-0.08642578124368937
0.01175,-0.007326677518368539,-0.08690582190003115
0.011875,-0.006349787182586067,-0.08690582190003115
0.012,-0.006838232350477303,-0.08788436631488172
0.012125,-0.006838232350477303,-0.08690582190003115
0.01225,-0.007815122686259775,-0.08690582190003115
0.012375,-0.006838232350477303,-0.08788436631488172
0.0125,-0.007815122686259775,-0.08788436631488172
0.012625,-0.007815122686259775,-0.0888629107297323
0.01275,-0.008303567854151012,-0.08788436631488172
0.012875,-0.007815122686259775,-0.0888629107297323
0.013,-0.008792013022042248,-0.0888629107297323
0.013125,-0.008792013022042248,-0.08838287007339052
0.01325,-0.010257348525715955,-0.08788436631488172
0.013375,-0.009280458189933482,-0.08788436631488172
0.0135,-0.009768903357824718,-0.08788436631488172
0.013625,-0.008792013022042248,-0.08788436631488172
0.01375,-0.009768903357824718,-0.08984145514458287
0.013875,-0.008792013022042248,-0.0888629107297323
0.014,-0.010257348525715955,-0.08788436631488172
0.014125,-0.008792013022042248,-0.08690582190003115
0.01425,-0.009280458189933482,-0.08690582190003115
0.014375,-0.008303567854151012,-0.08690582190003115
0.0145,-0.008303567854151012,-0.08594574058734758
0.014625,-0.008303567854151012,-0.08594574058734758
0.01475,-0.007815122686259775,-0.084967196172497
0.014875,-0.007815122686259775,-0.08446869241398822
0.015,-0.008303567854151012,-0.08642578124368937
0.015125,-0.006838232350477303,-0.084967196172497
0.01525,-0.006838232350477303,-0.08398865175764643
0.015375,-0.005861342014694832,-0.08398865175764643
0.0155,-0.006838232350477303,-0.08398865175764643
0.015625,-0.006349787182586067,-0.08251160358428707
0.01575,-0.006838232350477303,-0.08105301851309471
0.015875,-0.005372896846803595,-0.08105301851309471
0.016,-0.004884451678912359,-0.08105301851309471
0.016125,-0.004396006511021124,-0.08105301851309471
0.01625,-0.004884451678912359,-0.08203156292794528
0.016375,-0.003907561343129888,-0.08301010734279585
0.0165,-0.004396006511021124,-0.08007447409824413
0.016625,-0.0034191161752386515,-0.07909592968339356
0.01675,-0.003907561343129888,-0.07909592968339356
0.016875,-0.002930671007347416,-0.07811738526854298
0.017,-0.002930671007347416,-0.07909592968339356
0.017125,-0.001953780671564944,-0.0771573039558594
0.01725,-0.001953780671564944,-0.07617875954100883
0.017375,-0.0024422258394561796,-0.0771573039558594
0.0175,-0.002930671007347416,-0.07811738526854298
0.017625,-0.0024422258394561796,-0.0771573039558594
0.01775,-0.0024422258394561796,-0.07617875954100883
0.017875,-0.001953780671564944,-0.07520021512615825
0.018,-0.002930671007347416,-0.07520021512615825
0.018125,-0.0024422258394561796,-0.07470171136764947
0.01825,-0.002930671007347416,-0.0732431262964571
0.018375,-0.002930671007347416,-0.07226458188160653
0.0185,-0.002930671007347416,-0.07128603746675596
0.018625,-0.002930671007347416,-0.07226458188160653
0.01875,-0.002930671007347416,-0.0732431262964571
0.018875,-0.002930671007347416,-0.0732431262964571
0.019,-0.004396006511021124,-0.07128603746675596
0.019125,-0.003907561343129888,-0.07080599681041416
0.01925,-0.004884451678912359,-0.07030749305190538
0.019375,-0.004396006511021124,-0.06932894863705481
0.0195,-0.004884451678912359,-0.06835040422220423
0.019625,-0.004396006511021124,-0.06835040422220423
0.01975,-0.005372896846803595,-0.06739032290952066
0.019875,-0.004884451678912359,-0.06739032290952066
0.02,-0.006349787182586067,-0.06739032290952066
0.020125,-0.005861342014694832,-0.0654332340798195
0.02025,-0.006349787182586067,-0.06445468966496894
0.020375,-0.005861342014694832,-0.06445468966496894
0.0205,-0.006349787182586067,-0.06347614525011835
0.020625,-0.005861342014694832,-0.062497600835267786
0.02075,-0.006838232350477303,-0.06151905642041721
0.020875,-0.006349787182586067,-0.05956196759071606
0.021,-0.006838232350477303,-0.05860188627803248
0.021125,-0.006349787182586067,-0.05908192693437427
0.02125,-0.006838232350477303,-0.05956196759071606
0.021375,-0.006349787182586067,-0.05860188627803248
0.0215,-0.006838232350477303,-0.05762334186318191
0.021625,-0.006349787182586067,-0.05712483810467312
0.02175,-0.006838232350477303,-0.056644797448331334
0.021875,-0.006349787182586067,-0.053709164203779615
0.022,-0.006838232350477303,-0.05273061978892904
0.022125,-0.005372896846803595,-0.051752075374078464
0.02225,-0.005861342014694832,-0.051752075374078464
0.022375,-0.004884451678912359,-0.04981344964654431
0.0225,-0.005861342014694832,-0.04981344964654431
0.022625,-0.004884451678912359,-0.04785636081684316
0.02275,-0.004884451678912359,-0.047357857058334375
0.022875,-0.005372896846803595,-0.04589927198714201
0.023,-0.004396006511021124,-0.04492072757229144
0.023125,-0.002930671007347416,-0.04198509432773972
0.02325,-0.003907561343129888,-0.04198509432773972
0.023375,-0.002930671007347416,-0.04004646860020556
0.0235,-0.003907561343129888,-0.039067924185354985
0.023625,-0.0024422258394561796,-0.03808937977050442
0.02375,-0.002930671007347416,-0.03808937977050442
0.023875,-0.001953780671564944,-0.036132290940803266
0.024,-0.0024422258394561796,-0.03565225028446147
0.024125,-0.0034191161752386515,-0.034175202111102115
0.02425,-0.001953780671564944,-0.03319665769625155
0.024375,-0.0024422258394561796,-0.030279487553866814
0.0245,-0.0024422258394561796,-0.02930094313901624
0.024625,-0.001953780671564944,-0.028322398724165667
0.02475,-0.001953780671564944,-0.02734385430931509
0.024875,-0.001465335503673708,-0.02734385430931509
0.025,-0.002930671007347416,-0.02734385430931509
0.025125,-0.001953780671564944,-0.025386765479613944
0.02525,-0.0024422258394561796,-0.024408221064763373
0.025375,-0.001953780671564944,-0.023429676649912797
0.0255,-0.0024422258394561796,-0.02149105092237864
0.025625,-0.0024422258394561796,-0.020512506507528068
0.02575,-0.002930671007347416,-0.020014002749019284
0.025875,-0.002930671007347416,-0.01855541767782692
0.026,-0.003907561343129888,-0.017576873262976345
0.026125,-0.0034191161752386515,-0.017096832606634554
0.02625,-0.004884451678912359,-0.016598328848125773
0.026375,-0.003907561343129888,-0.014641240018424624
0.0265,-0.004396006511021124,-0.014641240018424624
0.026625,-0.004396006511021124,-0.015619784433275198
0.02675,-0.005861342014694832,-0.011724069876039895
0.026875,-0.006349787182586067,-0.009268477287829964
0.027,-0.006838232350477303,-0.008788436631488173
0.027125,-0.006349787182586067,-0.006831347801787025
0.02725,-0.006838232350477303,-0.005852803386936451
0.027375,-0.006838232350477303,-0.005852803386936451
0.0275,-0.007815122686259775,-0.004874258972085877
0.027625,-0.007326677518368539,-0.0034156739008935127
0.02775,-0.008792013022042248,-0.0024371294860429387
0.027875,-0.009280458189933482,-0.0029356332445517217
0.028,-0.009768903357824718,0.0009785444148505738
0.028125,-0.009280458189933482,0.0019570888297011477
0.02825,-0.010257348525715955,0.0029356332445517217
0.028375,-0.010257348525715955,0.003914177659402295
0.0285,-0.01074579369360719,0.005852803386936451
0.028625,-0.01074579369360719,0.005852803386936451
0.02875,-0.011234238861498427,0.005852803386936451
0.028875,-0.010257348525715955,0.008788436631488173
0.029,-0.01074579369360719,0.008788436631488173
0.029125,-0.009768903357824718,0.01074552546118932
0.02925,-0.01074579369360719,0.012702614290890469
0.029375,-0.009768903357824718,0.01366269560357405
0.0295,-0.010257348525715955,0.015619784433275198
0.029625,-0.008792013022042248,0.017096832606634554
0.02975,-0.008303567854151012,0.017576873262976345
0.029875,-0.007326677518368539,0.01855541767782692
0.03,-0.007815122686259775,0.017576873262976345
0.030125,-0.006838232350477303,0.020512506507528068
0.03025,-0.006838232350477303,0.02149105092237864
0.030375,-0.005372896846803595,0.022469595337229215
0.0305,-0.005861342014694832,0.025386765479613944
0.030625,-0.004396006511021124,0.02636530989446452
0.03075,-0.004884451678912359,0.02636530989446452
0.030875,-0.003907561343129888,0.0268638136529733
0.031,-0.003907561343129888,0.028322398724165667
0.031125,-0.002930671007347416,0.028322398724165667
0.03125,-0.002930671007347416,0.02930094313901624
0.031375,-0.002930671007347416,0.03125803196871739
0.0315,-0.0034191161752386515,0.030279487553866814
0.031625,-0.002930671007347416,0.030279487553866814
0.03175,-0.002930671007347416,0.03221811328140097
0.031875,-0.0024422258394561796,0.03319665769625155
0.032,-0.002930671007347416,0.034175202111102115
0.032125,-0.0024422258394561796,0.0346737058696109
0.03225,-0.002930671007347416,0.036132290940803266
0.032375,-0.0024422258394561796,0.03515374652595269
0.0325,-0.000976890335782472,0.03515374652595269
0.032625,-0.0024422258394561796,0.036612331597145054
0.03275,-0.0034191161752386515,0.036132290940803266
0.032875,-0.0034191161752386515,0.03808937977050442
0.033,-0.003907561343129888,0.039067924185354985
0.033125,-0.0034191161752386515,0.040526509256547355
0.03325,-0.004396006511021124,0.04100654991288914
0.033375,-0.003907561343129888,0.04198509432773972
0.0335,-0.004884451678912359,0.04296363874259029
0.033625,-0.004396006511021124,0.0424835980862485
0.03375,-0.006838232350477303,0.04394218315744086
0.033875,-0.005372896846803595,0.04492072757229144
0.034,-0.006349787182586067,0.04589927198714201
0.034125,-0.005372896846803595,0.04589927198714201
0.03425,-0.005372896846803595,0.04589927198714201
0.034375,-0.004884451678912359,0.04492072757229144
0.0345,-0.004884451678912359,0.04687781640199259
0.034625,-0.004884451678912359,0.04981344964654431
0.03475,-0.004884451678912359,0.0502934903028861
0.034875,-0.0034191161752386515,0.0502934903028861
0.035,-0.003907561343129888,0.051752075374078464
0.035125,-0.001953780671564944,0.051752075374078464
0.03525,-0.0024422258394561796,0.051752075374078464
0.035375,-0.000488445167891236,0.05273061978892904
0.0355,-0.000976890335782472,0.05566625303348076
0.035625,0.000976890335782472,0.05566625303348076
0.03575,0.000976890335782472,0.05762334186318191
0.035875,0.002930671007347416,0.05762334186318191
0.036,0.0034191161752386515,0.0581033825195237
0.036125,0.004396006511021124,0.05762334186318191
0.03625,0.004884451678912359,0.060540512005566635
0.036375,0.005372896846803595,0.060540512005566635
0.0365,0.005861342014694832,0.060540512005566635
0.036625,0.006838232350477303,0.06151905642041721
0.03675,0.006838232350477303,0.06347614525011835
0.036875,0.007815122686259775,0.06445468966496894
0.037,0.006838232350477303,0.0654332340798195
0.037125,0.007815122686259775,0.0654332340798195
0.03725,0.006838232350477303,0.06641177849467009
0.037375,0.007815122686259775,0.06739032290952066
0.0375,0.006838232350477303,0.06641177849467009
0.037625,0.007326677518368539,0.06739032290952066
0.03775,0.006838232350477303,0.06739032290952066
0.037875,0.006838232350477303,0.06739032290952066
0.038,0.004884451678912359,0.0698274523955636
0.038125,0.005372896846803595,0.07030749305190538
0.03825,0.004884451678912359,0.07128603746675596
0.038375,0.004884451678912359,0.07128603746675596
0.0385,0.0034191161752386515,0.07226458188160653
0.038625,0.003907561343129888,0.07128603746675596
0.03875,0.002930671007347416,0.07128603746675596
0.038875,0.002930671007347416,0.0732431262964571
0.039,0.001953780671564944,0.0732431262964571
0.039125,0.0024422258394561796,0.0737231669527989
0.03925,0.000976890335782472,0.07617875954100883
0.039375,0.0024422258394561796,0.07520021512615825
0.0395,0.000976890335782472,0.07520021512615825
0.039625,0.001953780671564944,0.07617875954100883
0.03975,0.000976890335782472,0.07617875954100883
0.039875,0.000976890335782472,0.07617875954100883
0.04,0.000976890335782472,0.0771573039558594
0.040125,0.001465335503673708,0.0771573039558594
0.04025,0.000976890335782472,0.07617875954100883
0.040375,0.000976890335782472,0.07617875954100883
0.0405,0.0,0.07811738526854298
0.040625,0.001465335503673708,0.07811738526854298
0.04075,0.000976890335782472,0.07909592968339356
0.040875,0.001953780671564944,0.07909592968339356
0.041,0.001465335503673708,0.07811738526854298
0.041125,0.002930671007347416,0.07763734461220119
0.04125,0.002930671007347416,0.0771573039558594
0.041375,0.002930671007347416,0.07909592968339356
0.0415,0.002930671007347416,0.07811738526854298
0.041625,0.0034191161752386515,0.07909592968339356
0.04175,0.0034191161752386515,0.08007447409824413
0.041875,0.004396006511021124,0.08007447409824413
0.042,0.003907561343129888,0.08007447409824413
0.042125,0.004884451678912359,0.08105301851309471
0.04225,0.002930671007347416,0.07909592968339356
0.042375,0.004396006511021124,0.07909592968339356
0.0425,0.003907561343129888,0.07909592968339356
0.042625,0.004884451678912359,0.08007447409824413
0.04275,0.004396006511021124,0.07811738526854298
0.042875,0.004884451678912359,0.07811738526854298
0.043,0.004396006511021124,0.0771573039558594
0.043125,0.004396006511021124,0.07763734461220119
0.04325,0.0034191161752386515,0.0771573039558594
0.043375,0.004396006511021124,0.0771573039558594
0.0435,0.003907561343129888,0.07617875954100883
0.043625,0.003907561343129888,0.0737231669527989
0.04375,0.0034191161752386515,0.0737231669527989
0.043875,0.0034191161752386515,0.0732431262964571
0.044,0.0024422258394561796,0.07226458188160653
0.044125,0.0024422258394561796,0.07226458188160653
0.04425,0.001465335503673708,0.07226458188160653
0.044375,0.001465335503673708,0.07128603746675596
0.0445,0.000976890335782472,0.0698274523955636
0.044625,0.000488445167891236,0.06932894863705481
0.04475,-0.000976890335782472,0.06835040422220423
0.044875,-0.000488445167891236,0.06591327473616129
0.045,-0.001953780671564944,0.0654332340798195
0.045125,-0.001953780671564944,0.06445468966496894
0.04525,-0.004396006511021124,0.062497600835267786
0.045375,-0.0024422258394561796,0.06201756017892599
0.0455,-0.0034191161752386515,0.06347614525011835
0.045625,-0.004396006511021124,0.06151905642041721
0.04575,-0.004884451678912359,0.060540512005566635
0.045875,-0.005372896846803595,0.05956196759071606
0.046,-0.005861342014694832,0.05762334186318191
0.046125,-0.005372896846803595,0.05566625303348076
0.04625,-0.006349787182586067,0.05566625303348076
0.046375,-0.006349787182586067,0.05468770861863018
0.0465,-0.008303567854151012,0.053709164203779615
0.046625,-0.006349787182586067,0.053709164203779615
0.04675,-0.007815122686259775,0.053709164203779615
0.046875,-0.006838232350477303,0.053709164203779615
0.047,-0.007815122686259775,0.05273061978892904
0.047125,-0.006838232350477303,0.051752075374078464
0.04725,-0.007815122686259775,0.0502934903028861
0.047375,-0.008792013022042248,0.04883490523169373
0.0475,-0.008303567854151012,0.04883490523169373
0.047625,-0.007326677518368539,0.04785636081684316
0.04775,-0.007815122686259775,0.04785636081684316
0.047875,-0.007815122686259775,0.04785636081684316
0.048,-0.008792013022042248,0.04883490523169373
0.048125,-0.008303567854151012,0.04785636081684316
0.04825,-0.009280458189933482,0.04785636081684316
0.048375,-0.009280458189933482,0.04687781640199259
0.0485,-0.009768903357824718,0.04637931264348381
0.048625,-0.010257348525715955,0.04589927198714201
0.04875,-0.010257348525715955,0.04589927198714201
0.048875,-0.009280458189933482,0.04394218315744086
0.049,-0.01074579369360719,0.04198509432773972
0.049125,-0.010257348525715955,0.04492072757229144
0.04925,-0.011722684029389663,0.04589927198714201
0.049375,-0.01074579369360719,0.04492072757229144
0.0495,-0.011722684029389663,0.04492072757229144
0.049625,-0.01074579369360719,0.04394218315744086
0.04975,-0.01074579369360719,0.04296363874259029
0.049875,-0.010257348525715955,0.04198509432773972
0.05,-0.01074579369360719,0.0424835980862485
0.050125,-0.010257348525715955,0.04198509432773972
0.05025,-0.01074579369360719,0.04100654991288914
0.050375,-0.010257348525715955,0.04296363874259029
0.0505,-0.010257348525715955,0.0424835980862485
0.050625,-0.009280458189933482,0.04198509432773972
0.05075,-0.010257348525715955,0.04198509432773972
0.050875,-0.009280458189933482,0.04296363874259029
0.051,-0.009768903357824718,0.04198509432773972
0.051125,-0.009280458189933482,0.04004646860020556
0.05125,-0.008792013022042248,0.04198509432773972
0.051375,-0.008303567854151012,0.040526509256547355
0.0515,-0.008303567854151012,0.04100654991288914
0.051625,-0.008303567854151012,0.04198509432773972
0.05175,-0.008792013022042248,0.04198509432773972
0.051875,-0.008303567854151012,0.04198509432773972
0.052,-0.008792013022042248,0.0424835980862485
0.052125,-0.007326677518368539,0.04198509432773972
0.05225,-0.007815122686259775,0.04100654991288914
0.052375,-0.007326677518368539,0.040526509256547355
0.0525,-0.008303567854151012,0.04100654991288914
0.052625,-0.007326677518368539,0.04100654991288914
0.05275,-0.008303567854151012,0.04100654991288914
0.052875,-0.006838232350477303,0.04394218315744086
0.053,-0.007326677518368539,0.04296363874259029
0.053125,-0.006349787182586067,0.043462142501099074
0.05325,-0.006838232350477303,0.04394218315744086
0.053375,-0.005861342014694832,0.04394218315744086
0.0535,-0.006838232350477303,0.0424835980862485
0.053625,-0.004396006511021124,0.04394218315744086
0.05375,-0.006349787182586067,0.04394218315744086
0.053875,-0.005372896846803595,0.04296363874259029
0.054,-0.005861342014694832,0.04198509432773972
0.054125,-0.004884451678912359,0.04394218315744086
0.05425,-0.005372896846803595,0.04394218315744086
0.054375,-0.004884451678912359,0.04394218315744086
0.0545,-0.004884451678912359,0.04394218315744086
0.054625,-0.004396006511021124,0.04492072757229144
0.05475,-0.004396006511021124,0.04198509432773972
0.054875,-0.0024422258394561796,0.04198509432773972
0.055,-0.004396006511021124,0.04296363874259029
0.055125,-0.0034191161752386515,0.04198509432773972
0.05525,-0.004396006511021124,0.0424835980862485
0.055375,-0.0024422258394561796,0.0424835980862485
0.0555,-0.002930671007347416,0.04394218315744086
0.055625,-0.001953780671564944,0.04296363874259029
0.05575,-0.001953780671564944,0.04296363874259029
0.055875,-0.000976890335782472,0.04394218315744086
0.056,-0.000976890335782472,0.04198509432773972
0.056125,-0.000488445167891236,0.04198509432773972
0.05625,0.0,0.04394218315744086
0.056375,0.001465335503673708,0.04296363874259029
0.0565,0.001953780671564944,0.04394218315744086
0.056625,0.0034191161752386515,0.04394218315744086
0.05675,0.003907561343129888,0.04296363874259029
0.056875,0.003907561343129888,0.04394218315744086
0.057,0.003907561343129888,0.04492072757229144
0.057125,0.005372896846803595,0.04492072757229144
0.05725,0.005372896846803595,0.04394218315744086
0.057375,0.006838232350477303,0.04394218315744086
0.0575,0.006838232350477303,0.04589927198714201
0.057625,0.007815122686259775,0.04492072757229144
0.05775,0.007326677518368539,0.04589927198714201
0.057875,0.008303567854151012,0.04687781640199259
0.058,0.008792013022042248,0.04687781640199259
0.058125,0.009280458189933482,0.04785636081684316
0.05825,0.009768903357824718,0.04785636081684316
0.058375,0.010257348525715955,0.04785636081684316
0.0585,0.009280458189933482,0.04492072757229144
0.058625,0.009768903357824718,0.04492072757229144
0.05875,0.009280458189933482,0.04687781640199259
0.058875,0.010257348525715955,0.04785636081684316
0.059,0.009768903357824718,0.04785636081684316
0.059125,0.01074579369360719,0.04785636081684316
0.05925,0.01074579369360719,0.04687781640199259
0.059375,0.01074579369360719,0.04883490523169373
0.0595,0.010257348525715955,0.04981344964654431
0.059625,0.010257348525715955,0.04981344964654431
0.05975,0.009768903357824718,0.04981344964654431
0.059875,0.01074579369360719,0.04883490523169373
0.06,0.01074579369360719,0.05077353095922789
0.060125,0.011234238861498427,0.0502934903028861
0.06025,0.01074579369360719,0.05077353095922789
0.060375,0.01074579369360719,0.051752075374078464
0.0605,0.009768903357824718,0.05273061978892904
0.060625,0.011234238861498427,0.05273061978892904
0.06075,0.011234238861498427,0.053709164203779615
0.060875,0.011722684029389663,0.053709164203779615
0.061,0.01074579369360719,0.051752075374078464
0.061125,0.011234238861498427,0.05273061978892904
0.06125,0.01074579369360719,0.053709164203779615
0.061375,0.011234238861498427,0.054207667962288396
0.0615,0.01074579369360719,0.05566625303348076
0.061625,0.011234238861498427,0.05566625303348076
0.06175,0.01074579369360719,0.05566625303348076
0.061875,0.011234238861498427,0.05614629368982255
0.062,0.01074579369360719,0.05762334186318191
0.062125,0.011234238861498427,0.05762334186318191
0.06225,0.01074579369360719,0.056644797448331334
0.062375,0.011234238861498427,0.05762334186318191
0.0625,0.011234238861498427,0.05762334186318191
0.062625,0.0122111291972809,0.05762334186318191
0.06275,0.011722684029389663,0.05860188627803248
0.062875,0.012699574365172134,0.05956196759071606
0.063,0.011722684029389663,0.060540512005566635
0.063125,0.01318801953306337,0.060540512005566635
0.06325,0.012699574365172134,0.06151905642041721
0.063375,0.014155864587958967,0.05956196759071606
0.0635,0.013667419420067732,0.05860188627803248
0.063625,0.014644309755850203,0.05956196759071606
0.06375,0.013667419420067732,0.060540512005566635
0.063875,0.014155864587958967,0.060540512005566635
0.064,0.014644309755850203,0.06151905642041721
0.064125,0.01513275492374144,0.06151905642041721
0.06425,0.014644309755850203,0.062497600835267786
0.064375,0.01513275492374144,0.06347614525011835
0.0645,0.013667419420067732,0.06445468966496894
0.064625,0.014644309755850203,0.06347614525011835
0.06475,0.012699574365172134,0.06151905642041721
0.064875,0.01318801953306337,0.06347614525011835
0.065,0.012699574365172134,0.06445468966496894
0.065125,0.01318801953306337,0.06395618590646016
0.06525,0.012699574365172134,0.06445468966496894
0.065375,0.012699574365172134,0.06445468966496894
0.0655,0.011722684029389663,0.06445468966496894
0.065625,0.011234238861498427,0.0654332340798195
0.06575,0.01074579369360719,0.06641177849467009
0.065875,0.011722684029389663,0.06591327473616129
0.066,0.01074579369360719,0.0654332340798195
0.066125,0.011234238861498427,0.0654332340798195
0.06625,0.010257348525715955,0.06641177849467009
0.066375,0.011234238861498427,0.06591327473616129
0.0665,0.009768903357824718,0.06739032290952066
0.066625,0.01074579369360719,0.06739032290952066
0.06675,0.009768903357824718,0.06739032290952066
0.066875,0.01074579369360719,0.06787036356586244
0.067,0.009768903357824718,0.06739032290952066
0.067125,0.01074579369360719,0.06591327473616129
0.06725,0.009768903357824718,0.0654332340798195
0.067375,0.010257348525715955,0.0654332340798195
0.0675,0.008792013022042248,0.06739032290952066
0.067625,0.01074579369360719,0.0654332340798195
0.06775,0.01074579369360719,0.0654332340798195
0.067875,0.011234238861498427,0.0654332340798195
0.068,0.01074579369360719,0.0654332340798195
0.068125,0.011234238861498427,0.0654332340798195
0.06825,0.011234238861498427,0.0654332340798195
0.068375,0.0122111291972809,0.06395618590646016
0.0685,0.011234238861498427,0.062497600835267786
0.068625,0.01318801953306337,0.06151905642041721
0.06875,0.012699574365172134,0.062497600835267786
0.068875,0.014155864587958967,0.06151905642041721
0.069,0.013667419420067732,0.060540512005566635
0.069125,0.014644309755850203,0.05956196759071606
0.06925,0.01513275492374144,0.05956196759071606
0.069375,0.01610964525952391,0.05860188627803248
0.0695,0.01757498076319762,0.05762334186318191
0.069625,0.018063425931088856,0.05566625303348076
0.06975,0.016598090427415148,0.05468770861863018
0.069875,0.01904031626687133,0.05566625303348076
0.07,0.01952876143476256,0.05468770861863018
0.070125,0.02099409693843627,0.054207667962288396
0.07025,0.021482542106327506,0.053709164203779615
0.070375,0.02343632277789245,0.053709164203779615
0.0705,0.022947877610001215,0.05273061978892904
0.070625,0.024413213113674923,0.053709164203779615
0.07075,0.024413213113674923,0.05273061978892904
0.070875,0.026366993785239868,0.051752075374078464
0.071,0.026366993785239868,0.05077353095922789
0.071125,0.027832329288913573,0.0502934903028861
0.07125,0.027343884121022337,0.04981344964654431
0.071375,0.028809219624696045,0.04981344964654431
0.0715,0.02832077445680481,0.04981344964654431
0.071625,0.02929766479258728,0.04981344964654431
0.07175,0.02929766479258728,0.04981344964654431
0.071875,0.03076300029626099,0.04981344964654431
0.072,0.030274555128369754,0.04981344964654431
0.072125,0.03173989063204346,0.04883490523169373
0.07225,0.031251445464152226,0.04589927198714201
0.072375,0.031251445464152226,0.04785636081684316
0.0725,0.030274555128369754,0.04883490523169373
0.072625,0.031251445464152226,0.04883490523169373
0.07275,0.030274555128369754,0.04883490523169373
0.072875,0.031251445464152226,0.04785636081684316
0.073,0.02929766479258728,0.04785636081684316
0.073125,0.029786109960478518,0.04883490523169373
0.07325,0.028809219624696045,0.04883490523169373
0.073375,0.028809219624696045,0.04687781640199259
0.0735,0.027343884121022337,0.04492072757229144
0.073625,0.028809219624696045,0.04687781640199259
0.07375,0.02832077445680481,0.04687781640199259
0.073875,0.027832329288913573,0.04589927198714201
0.074,0.026366993785239868,0.04589927198714201
0.074125,0.0268554389531311,0.04589927198714201
0.07425,0.026366993785239868,0.04589927198714201
0.074375,0.0268554389531311,0.04687781640199259
0.0745,0.026366993785239868,0.04589927198714201
0.074625,0.027343884121022337,0.04444068691594965
0.07475,0.026366993785239868,0.04394218315744086
0.074875,0.027343884121022337,0.04444068691594965
0.075,0.026366993785239868,0.04492072757229144
0.075125,0.0268554389531311,0.04394218315744086
0.07525,0.026366993785239868,0.04492072757229144
0.075375,0.026366993785239868,0.04394218315744086
0.0755,0.0268554389531311,0.04394218315744086
0.075625,0.0268554389531311,0.04394218315744086
0.07575,0.0268554389531311,0.04394218315744086
0.075875,0.0268554389531311,0.04198509432773972
0.076,0.0268554389531311,0.04198509432773972
0.076125,0.027832329288913573,0.0424835980862485
0.07625,0.026366993785239868,0.04296363874259029
0.076375,0.0268554389531311,0.04198509432773972
0.0765,0.026366993785239868,0.0424835980862485
0.076625,0.0268554389531311,0.04394218315744086
0.07675,0.026366993785239868,0.04198509432773972
0.076875,0.026366993785239868,0.0424835980862485
0.077,0.026366993785239868,0.0424835980862485
0.077125,0.0268554389531311,0.04100654991288914
0.07725,0.025390103449457396,0.04004646860020556
0.077375,0.026366993785239868,0.04198509432773972
0.0775,0.025390103449457396,0.04198509432773972
0.077625,0.025390103449457396,0.04198509432773972
0.07775,0.025390103449457396,0.04296363874259029
0.077875,0.02490165828156616,0.04198509432773972
0.078,0.025390103449457396,0.04198509432773972
0.078125,0.025390103449457396,0.04198509432773972
0.07825,0.025390103449457396,0.04100654991288914
0.078375,0.02490165828156616,0.04004646860020556
0.0785,0.024413213113674923,0.04004646860020556
0.078625,0.02490165828156616,0.04100654991288914
0.07875,0.024413213113674923,0.04004646860020556
0.078875,0.024413213113674923,0.039067924185354985
0.079,0.023924767945783687,0.039067924185354985
0.079125,0.024413213113674923,0.03808937977050442
0.07925,0.022947877610001215,0.03808937977050442
0.079375,0.02343632277789245,0.03808937977050442
0.0795,0.02245943244210998,0.03808937977050442
0.079625,0.02343632277789245,0.0346737058696109
0.07975,0.02245943244210998,0.034175202111102115
0.079875,0.02245943244210998,0.0346737058696109
0.08,0.021482542106327506,0.03319665769625155
0.080125,0.02245943244210998,0.034175202111102115
0.08025,0.021482542106327506,0.034175202111102115
0.080375,0.02245943244210998,0.034175202111102115
0.0805,0.021482542106327506,0.03319665769625155
0.080625,0.022947877610001215,0.03271661703990975
0.08075,0.02099409693843627,0.03221811328140097
0.080875,0.021970987274218742,0.030279487553866814
0.081,0.020505651770545034,0.02930094313901624
0.081125,0.02099409693843627,0.030279487553866814
0.08125,0.020505651770545034,0.02930094313901624
0.081375,0.02099409693843627,0.028322398724165667
0.0815,0.021482542106327506,0.028322398724165667
0.081625,0.021970987274218742,0.0268638136529733
0.08175,0.020505651770545034,0.02734385430931509
0.081875,0.021970987274218742,0.02734385430931509
0.082,0.020505651770545034,0.0268638136529733
0.082125,0.021970987274218742,0.025386765479613944
0.08225,0.02099409693843627,0.025386765479613944
0.082375,0.021970987274218742,0.02636530989446452
0.0825,0.021482542106327506,0.025386765479613944
0.082625,0.021970987274218742,0.02636530989446452
0.08275,0.02099409693843627,0.02636530989446452
0.082875,0.021970987274218742,0.02636530989446452
0.083,0.021482542106327506,0.02636530989446452
0.083125,0.022947877610001215,0.02636530989446452
0.08325,0.02245943244210998,0.025386765479613944
0.083375,0.02245943244210998,0.022949635993571006
0.0835,0.02245943244210998,0.023429676649912797
0.083625,0.02245943244210998,0.024408221064763373
0.08375,0.021970987274218742,0.024408221064763373
0.083875,0.022947877610001215,0.023429676649912797
0.084,0.02245943244210998,0.022469595337229215
0.084125,0.022947877610001215,0.02149105092237864
0.08425,0.021482542106327506,0.02149105092237864
0.084375,0.021970987274218742,0.022949635993571006
0.0845,0.021482542106327506,0.022469595337229215
0.084625,0.022947877610001215,0.02149105092237864
0.08475,0.021482542106327506,0.020512506507528068
0.084875,0.02245943244210998,0.02197109157872043
0.085,0.021482542106327506,0.02149105092237864
0.085125,0.02245943244210998,0.02099254716386986
0.08525,0.021482542106327506,0.02149105092237864
0.085375,0.021970987274218742,0.02149105092237864
0.0855,0.021482542106327506,0.02149105092237864
0.085625,0.02245943244210998,0.022469595337229215
0.08575,0.021482542106327506,0.020512506507528068
0.085875,0.02245943244210998,0.020512506507528068
0.086,0.021482542106327506,0.020512506507528068
0.086125,0.021970987274218742,0.022469595337229215
0.08625,0.020505651770545034,0.02149105092237864
0.086375,0.02099409693843627,0.022469595337229215
0.0865,0.020505651770545034,0.022469595337229215
0.086625,0.021970987274218742,0.022469595337229215
0.08675,0.020505651770545034,0.022469595337229215
0.086875,0.02099409693843627,0.022469595337229215
0.087,0.01952876143476256,0.02149105092237864
0.087125,0.020017206602653798,0.020512506507528068
0.08725,0.01904031626687133,0.020512506507528068
0.087375,0.020017206602653798,0.020512506507528068
0.0875,0.01904031626687133,0.019533962092677493
0.087625,0.01952876143476256,0.01903545833416871
0.08775,0.018551871098980093,0.01855541767782692
0.087875,0.01904031626687133,0.01855541767782692
0.088,0.018551871098980093,0.01855541767782692
0.088125,0.018551871098980093,0.01855541767782692
0.08825,0.018551871098980093,0.017576873262976345
0.088375,0.01904031626687133,0.016598328848125773
0.0885,0.018551871098980093,0.016598328848125773
0.088625,0.01757498076319762,0.017576873262976345
0.08875,0.01757498076319762,0.017576873262976345
0.088875,0.018551871098980093,0.017576873262976345
0.089,0.01757498076319762,0.01855541767782692
0.089125,0.018551871098980093,0.017576873262976345
0.08925,0.018551871098980093,0.01855541767782692
0.089375,0.018551871098980093,0.017576873262976345
0.0895,0.018551871098980093,0.017576873262976345
0.089625,0.018551871098980093,0.016118288191783983
0.08975,0.018551871098980093,0.017576873262976345
0.089875,0.018063425931088856,0.01855541767782692
0.09,0.018551871098980093,0.017576873262976345
0.090125,0.01904031626687133,0.01855541767782692
0.09025,0.018551871098980093,0.017576873262976345
0.090375,0.01904031626687133,0.01855541767782692
0.0905,0.018551871098980093,0.01855541767782692
0.090625,0.01952876143476256,0.01855541767782692
0.09075,0.018551871098980093,0.017576873262976345
0.090875,0.018063425931088856,0.015619784433275198
0.091,0.018551871098980093,0.015619784433275198
0.091125,0.01904031626687133,0.016598328848125773
0.09125,0.01757498076319762,0.015619784433275198
0.091375,0.018551871098980093,0.016118288191783983
0.0915,0.017086535595306384,0.015619784433275198
0.091625,0.018063425931088856,0.015619784433275198
0.09175,0.01757498076319762,0.015619784433275198
0.091875,0.018063425931088856,0.014641240018424624
0.092,0.01757498076319762,0.01366269560357405
0.092125,0.016598090427415148,0.01318265494723226
0.09225,0.016598090427415148,0.01366269560357405
0.092375,0.017086535595306384,0.01366269560357405
0.0925,0.016598090427415148,0.014161199362082834
0.092625,0.016598090427415148,0.014161199362082834
0.09275,0.015621200091632675,0.01366269560357405
0.092875,0.01610964525952391,0.01318265494723226
0.093,0.015621200091632675,0.01366269560357405
0.093125,0.015621200091632675,0.014641240018424624
0.09325,0.015621200091632675,0.012702614290890469
0.093375,0.016598090427415148,0.011225566117531111
0.0935,0.01610964525952391,0.012702614290890469
0.093625,0.016598090427415148,0.012702614290890469
0.09375,0.016598090427415148,0.012702614290890469
0.093875,0.017086535595306384,0.012702614290890469
0.094,0.017086535595306384,0.012702614290890469
0.094125,0.018551871098980093,0.01318265494723226
0.09425,0.018551871098980093,0.01366269560357405
0.094375,0.020017206602653798,0.01366269560357405
0.0945,0.01952876143476256,0.011225566117531111
0.094625,0.020505651770545034,0.009766981046338746
0.09475,0.020505651770545034,0.011225566117531111
0.094875,0.021970987274218742,0.012702614290890469
0.095,0.021482542106327506,0.011724069876039895
0.095125,0.022947877610001215,0.012702614290890469
0.09525,0.02245943244210998,0.011724069876039895
0.095375,0.02343632277789245,0.011724069876039895
0.0955,0.022947877610001215,0.012702614290890469
0.095625,0.023924767945783687,0.012702614290890469
0.09575,0.024413213113674923,0.011225566117531111
0.095875,0.024413213113674923,0.010247021702680537
0.096,0.02490165828156616,0.011225566117531111
0.096125,0.025878548617348632,0.011724069876039895
0.09625,0.02490165828156616,0.011225566117531111
0.096375,0.025878548617348632,0.012702614290890469
0.0965,0.024413213113674923,0.012702614290890469
0.096625,0.025878548617348632,0.01318265494723226
0.09675,0.025390103449457396,0.01366269560357405
0.096875,0.026366993785239868,0.012702614290890469
0.097,0.025878548617348632,0.012702614290890469
0.097125,0.026366993785239868,0.011225566117531111
0.09725,0.025390103449457396,0.012702614290890469
0.097375,0.02490165828156616,0.012702614290890469
0.0975,0.024413213113674923,0.012702614290890469
0.097625,0.02490165828156616,0.01318265494723226
0.09775,0.02343632277789245,0.012702614290890469
0.097875,0.024413213113674923,0.012702614290890469
0.098,0.022947877610001215,0.01366269560357405
0.098125,0.023924767945783687,0.01366269560357405
0.09825,0.02245943244210998,0.011724069876039895
0.098375,0.02245943244210998,0.011225566117531111
0.0985,0.021482542106327506,0.012702614290890469
0.098625,0.021970987274218742,0.012702614290890469
0.09875,0.020505651770545034,0.011724069876039895
0.098875,0.02099409693843627,0.012702614290890469
0.099,0.01904031626687133,0.011724069876039895
0.099125,0.01952876143476256,0.012702614290890469
0.09925,0.018551871098980093,0.012702614290890469
0.099375,0.01952876143476256,0.012204110532381686
0.0995,0.018551871098980093,0.01074552546118932
0.099625,0.018551871098980093,0.009268477287829964
0.09975,0.01757498076319762,0.011225566117531111
0.099875,0.018063425931088856,0.01074552546118932
0.1,0.016598090427415148,0.01074552546118932
0.100125,0.017086535595306384,0.011225566117531111
0.10025,0.015621200091632675,0.01074552546118932
0.100375,0.017086535595306384,0.011225566117531111
0.1005,0.016598090427415148,0.011225566117531111
0.100625,0.01610964525952391,0.011225566117531111
0.10075,0.01513275492374144,0.009766981046338746
0.100875,0.01513275492374144,0.01074552546118932
0.101,0.014644309755850203,0.012702614290890469
0.101125,0.014644309755850203,0.011724069876039895
0.10125,0.014644309755850203,0.012702614290890469
0.101375,0.014644309755850203,0.01318265494723226
0.1015,0.01318801953306337,0.012702614290890469
0.101625,0.01318801953306337,0.01366269560357405
0.10175,0.013667419420067732,0.014641240018424624
0.101875,0.01318801953306337,0.015619784433275198
0.102,0.012699574365172134,0.01366269560357405
0.102125,0.01318801953306337,0.01366269560357405
0.10225,0.011722684029389663,0.015619784433275198
0.102375,0.011234238861498427,0.015619784433275198
0.1025,0.0122111291972809,0.015619784433275198
0.102625,0.011234238861498427,0.016598328848125773
0.10275,0.01318801953306337,0.01855541767782692
0.102875,0.011234238861498427,0.016598328848125773
0.103,0.0122111291972809,0.01855541767782692
0.103125,0.01074579369360719,0.017576873262976345
0.10325,0.01074579369360719,0.017576873262976345
0.103375,0.01074579369360719,0.016598328848125773
0.1035,0.009280458189933482,0.01903545833416871
0.103625,0.01074579369360719,0.017576873262976345
0.10375,0.010257348525715955,0.016598328848125773
0.103875,0.01074579369360719,0.01855541767782692
0.104,0.009280458189933482,0.01855541767782692
0.104125,0.009280458189933482,0.019533962092677493
0.10425,0.010257348525715955,0.019533962092677493
0.104375,0.008792013022042248,0.019533962092677493
0.1045,0.009768903357824718,0.019533962092677493
0.104625,0.008792013022042248,0.01855541767782692
0.10475,0.008792013022042248,0.01903545833416871
0.104875,0.010257348525715955,0.020512506507528068
0.105,0.007815122686259775,0.02149105092237864
0.105125,0.008792013022042248,0.02099254716386986
0.10525,0.007326677518368539,0.02149105092237864
0.105375,0.007815122686259775,0.022469595337229215
0.1055,0.008303567854151012,0.024408221064763373
0.105625,0.005861342014694832,0.022469595337229215
0.10575,0.008303567854151012,0.02149105092237864
0.105875,0.004884451678912359,0.022469595337229215
0.106,0.004884451678912359,0.022469595337229215
0.106125,0.003907561343129888,0.023429676649912797
0.10625,0.004884451678912359,0.024408221064763373
0.106375,0.003907561343129888,0.024408221064763373
0.1065,0.003907561343129888,0.024906724823272153
0.106625,0.0034191161752386515,0.025386765479613944
0.10675,0.001953780671564944,0.02636530989446452
0.106875,0.0024422258394561796,0.025386765479613944
0.107,0.001953780671564944,0.025386765479613944
0.107125,0.001953780671564944,0.025386765479613944
0.10725,0.000976890335782472,0.02734385430931509
0.107375,0.000976890335782472,0.02734385430931509
0.1075,0.0,0.028322398724165667
0.107625,-0.000976890335782472,0.02930094313901624
0.10775,-0.000976890335782472,0.030279487553866814
0.107875,-0.001465335503673708,0.03125803196871739
0.108,-0.001465335503673708,0.03319665769625155
0.108125,-0.001465335503673708,0.03125803196871739
0.10825,-0.0024422258394561796,0.030759528210208605
0.108375,-0.0024422258394561796,0.03221811328140097
0.1085,-0.0034191161752386515,0.03319665769625155
0.108625,-0.0034191161752386515,0.034175202111102115
0.10875,-0.003907561343129888,0.034175202111102115
0.108875,-0.003907561343129888,0.034175202111102115
0.109,-0.004396006511021124,0.03319665769625155
0.109125,-0.004884451678912359,0.0346737058696109
0.10925,-0.005861342014694832,0.036132290940803266
0.109375,-0.005372896846803595,0.036612331597145054
0.1095,-0.006349787182586067,0.036132290940803266
0.109625,-0.006838232350477303,0.03711083535565384
0.10975,-0.006838232350477303,0.03808937977050442
0.109875,-0.006349787182586067,0.03808937977050442
0.11,-0.006349787182586067,0.038569420426846204
0.110125,-0.006838232350477303,0.04004646860020556
0.11025,-0.007815122686259775,0.039067924185354985
0.110375,-0.007815122686259775,0.04004646860020556
0.1105,-0.007815122686259775,0.04198509432773972
0.110625,-0.006838232350477303,0.04004646860020556
0.11075,-0.007815122686259775,0.039067924185354985
0.110875,-0.008792013022042248,0.04004646860020556
0.111,-0.008792013022042248,0.04004646860020556
0.111125,-0.009280458189933482,0.04100654991288914
0.11125,-0.008303567854151012,0.040526509256547355
0.111375,-0.009768903357824718,0.04004646860020556
0.1115,-0.008303567854151012,0.04100654991288914
0.111625,-0.009280458189933482,0.04100654991288914
0.11175,-0.009280458189933482,0.04100654991288914
0.111875,-0.009280458189933482,0.040526509256547355
0.112,-0.010257348525715955,0.039067924185354985
0.112125,-0.009280458189933482,0.039067924185354985
0.11225,-0.009280458189933482,0.04004646860020556
0.112375,-0.009768903357824718,0.04100654991288914
0.1125,-0.008792013022042248,0.04004646860020556
0.112625,-0.009768903357824718,0.04004646860020556
0.11275,-0.009280458189933482,0.04004646860020556
0.112875,-0.009768903357824718,0.04100654991288914
0.113,-0.008792013022042248,0.040526509256547355
0.113125,-0.008792013022042248,0.039067924185354985
0.11325,-0.009280458189933482,0.03808937977050442
0.113375,-0.008792013022042248,0.03808937977050442
0.1135,-0.007326677518368539,0.038569420426846204
0.113625,-0.008792013022042248,0.038569420426846204
0.11375,-0.007815122686259775,0.039067924185354985
0.113875,-0.008303567854151012,0.04004646860020556
0.114,-0.006838232350477303,0.039067924185354985
0.114125,-0.007326677518368539,0.039067924185354985
0.11425,-0.006838232350477303,0.038569420426846204
0.114375,-0.006838232350477303,0.03711083535565384
0.1145,-0.005861342014694832,0.036612331597145054
0.114625,-0.006838232350477303,0.03711083535565384
0.11475,-0.005861342014694832,0.036132290940803266
0.114875,-0.005861342014694832,0.036132290940803266
0.115,-0.004884451678912359,0.036132290940803266
0.115125,-0.004884451678912359,0.034175202111102115
0.11525,-0.004396006511021124,0.034175202111102115
0.115375,-0.004884451678912359,0.034175202111102115
0.1155,-0.004396006511021124,0.034175202111102115
0.115625,-0.004396006511021124,0.03125803196871739
0.11575,-0.003907561343129888,0.028322398724165667
0.115875,-0.004396006511021124,0.02930094313901624
0.116,-0.0034191161752386515,0.02930094313901624
0.116125,-0.004396006511021124,0.028322398724165667
0.11625,-0.003907561343129888,0.027823894965656883
0.116375,-0.004396006511021124,0.0268638136529733
0.1165,-0.0034191161752386515,0.02636530989446452
0.116625,-0.004396006511021124,0.025386765479613944
0.11675,-0.002930671007347416,0.024408221064763373
0.116875,-0.004396006511021124,0.022469595337229215
0.117,-0.004396006511021124,0.020512506507528068
0.117125,-0.004396006511021124,0.02149105092237864
0.11725,-0.003907561343129888,0.02099254716386986
0.117375,-0.004884451678912359,0.019533962092677493
0.1175,-0.004396006511021124,0.01903545833416871
0.117625,-0.005372896846803595,0.016598328848125773
0.11775,-0.004884451678912359,0.016598328848125773
0.117875,-0.005861342014694832,0.015619784433275198
0.118,-0.005372896846803595,0.01366269560357405
0.118125,-0.005861342014694832,0.012702614290890469
0.11825,-0.005372896846803595,0.011724069876039895
0.118375,-0.005861342014694832,0.01074552546118932
0.1185,-0.006349787182586067,0.01074552546118932
0.118625,-0.006838232350477303,0.008788436631488173
0.11875,-0.006838232350477303,0.008788436631488173
0.118875,-0.008303567854151012,0.007329851560295808
0.119,-0.007326677518368539,0.006831347801787025
0.119125,-0.008303567854151012,0.005852803386936451
0.11925,-0.007326677518368539,0.004874258972085877
0.119375,-0.008792013022042248,0.0029356332445517217
0.1195,-0.008303567854151012,0.0014585850711923648
0.119625,-0.009768903357824718,0.0019570888297011477
0.11975,-0.009768903357824718,0.0029356332445517217
0.119875,-0.010257348525715955,0.0009785444148505738
0.12,-0.009280458189933482,0.0
0.120125,-0.01074579369360719,-0.0019570888297011477
0.12025,-0.010257348525715955,-0.0029356332445517217
0.120375,-0.01074579369360719,-0.0029356332445517217
0.1205,-0.010257348525715955,-0.004874258972085877
0.120625,-0.01074579369360719,-0.007809892216637599
0.12075,-0.01074579369360719,-0.008788436631488173
0.120875,-0.01074579369360719,-0.008788436631488173
0.121,-0.010257348525715955,-0.010247021702680537
0.121125,-0.01074579369360719,-0.012204110532381686
0.12125,-0.010257348525715955,-0.012702614290890469
0.121375,-0.01074579369360719,-0.014161199362082834
0.1215,-0.010257348525715955,-0.014641240018424624
0.121625,-0.010257348525715955,-0.015619784433275198
0.12175,-0.009280458189933482,-0.01807537702148513
0.121875,-0.009768903357824718,-0.02149105092237864
0.122,-0.009280458189933482,-0.022469595337229215
0.122125,-0.009768903357824718,-0.023429676649912797
0.12225,-0.008792013022042248,-0.024906724823272153
0.122375,-0.009768903357824718,-0.02636530989446452
0.1225,-0.008792013022042248,-0.027823894965656883
0.122625,-0.009280458189933482,-0.02930094313901624
0.12275,-0.007815122686259775,-0.03173807262505918
0.122875,-0.008792013022042248,-0.03319665769625155
0.123,-0.008303567854151012,-0.03515374652595269
0.123125,-0.008303567854151012,-0.03808937977050442
0.12325,-0.008303567854151012,-0.04004646860020556
0.123375,-0.008792013022042248,-0.04100654991288914
0.1235,-0.008303567854151012,-0.043462142501099074
0.123625,-0.008792013022042248,-0.04492072757229144
0.12375,-0.008792013022042248,-0.04687781640199259
0.123875,-0.010257348525715955,-0.04883490523169373
0.124,-0.009280458189933482,-0.05077353095922789
0.124125,-0.009280458189933482,-0.051752075374078464
0.12425,-0.009768903357824718,-0.053709164203779615
0.124375,-0.009768903357824718,-0.05762334186318191
0.1245,-0.009280458189933482,-0.05956196759071606
0.124625,-0.01074579369360719,-0.060540512005566635
0.12475,-0.010257348525715955,-0.06151905642041721
0.124875,-0.01074579369360719,-0.06347614525011835
0.125,-0.010257348525715955,-0.06347614525011835
0.125125,-0.01074579369360719,-0.06641177849467009
0.12525,-0.010257348525715955,-0.06689181915101187
0.125375,-0.01074579369360719,-0.06835040422220423
0.1255,-0.010257348525715955,-0.07080599681041416
0.125625,-0.011722684029389663,-0.0732431262964571
0.12575,-0.011234238861498427,-0.07520021512615825
0.125875,-0.011722684029389663,-0.07470171136764947
0.126,-0.011234238861498427,-0.07617875954100883
0.126125,-0.0122111291972809,-0.0771573039558594
0.12625,-0.011722684029389663,-0.07811738526854298
0.126375,-0.012699574365172134,-0.08007447409824413
0.1265,-0.0122111291972809,-0.08007447409824413
0.126625,-0.0122111291972809,-0.08007447409824413
0.12675,-0.0122111291972809,-0.08251160358428707
0.126875,-0.012699574365172134,-0.084967196172497
0.127,-0.0122111291972809,-0.08642578124368937
0.127125,-0.01318801953306337,-0.08690582190003115
0.12725,-0.012699574365172134,-0.08838287007339052
0.127375,-0.014155864587958967,-0.0888629107297323
0.1275,-0.013667419420067732,-0.09033995890309165
0.127625,-0.014644309755850203,-0.09081999955943346
0.12775,-0.014155864587958967,-0.09081999955943346
0.127875,-0.014644309755850203,-0.09179854397428402
0.128,-0.014155864587958967,-0.0927770883891346
0.128125,-0.014644309755850203,-0.09473417721883574
0.12825,-0.014644309755850203,-0.09569425853151933
0.128375,-0.01513275492374144,-0.09473417721883574
0.1285,-0.014644309755850203,-0.09619276229002811
0.128625,-0.01513275492374144,-0.0966728029463699
0.12875,-0.014155864587958967,-0.09814985111972926
0.128875,-0.015621200091632675,-0.09862989177607105
0.129,-0.014644309755850203,-0.09862989177607105
0.129125,-0.015621200091632675,-0.09960843619092162
0.12925,-0.014644309755850203,-0.10156552502062277
0.129375,-0.015621200091632675,-0.10254406943547334
0.1295,-0.014644309755850203,-0.10400265450666571
0.129625,-0.014644309755850203,-0.10450115826517449
0.12975,-0.014155864587958967,-0.10546123957785808
0.129875,-0.014644309755850203,-0.10595974333636686
0.13,-0.014155864587958967,-0.10643978399270865
0.130125,-0.014644309755850203,-0.10741832840755923
0.13025,-0.013667419420067732,-0.10741832840755923
0.130375,-0.014155864587958967,-0.10791683216606801
0.1305,-0.012699574365172134,-0.11035396165211095
0.130625,-0.014155864587958967,-0.1123110504818121
0.13075,-0.01318801953306337,-0.11376963555300446
0.130875,-0.014644309755850203,-0.11328959489666267
0.131,-0.012699574365172134,-0.11424967620934624
0.131125,-0.013667419420067732,-0.11424967620934624
0.13125,-0.012699574365172134,-0.1157267243827056
0.131375,-0.013667419420067732,-0.11768381321240676
0.1315,-0.013667419420067732,-0.11768381321240676
0.131625,-0.014644309755850203,-0.11816385386874854
0.13175,-0.014155864587958967,-0.11962243893994091
0.131875,-0.014644309755850203,-0.12157952776964205
0.132,-0.014155864587958967,-0.12207803152815085
0.132125,-0.015621200091632675,-0.12157952776964205
0.13225,-0.014155864587958967,-0.12303811284083442
0.132375,-0.014644309755850203,-0.12401665725568499
0.1325,-0.014155864587958967,-0.12401665725568499
0.132625,-0.014644309755850203,-0.12549370542904437
0.13275,-0.014155864587958967,-0.12549370542904437
0.132875,-0.014644309755850203,-0.12597374608538614
0.133,-0.013667419420067732,-0.1274323311565785
0.133125,-0.014155864587958967,-0.12988792374478844
0.13325,-0.014155864587958967,-0.12988792374478844
0.133375,-0.014155864587958967,-0.12988792374478844
0.1335,-0.01318801953306337,-0.130866468159639
0.133625,-0.012699574365172134,-0.130866468159639
0.13375,-0.0122111291972809,-0.13184501257448958
0.133875,-0.0122111291972809,-0.13184501257448958
0.134,-0.011234238861498427,-0.13184501257448958
0.134125,-0.011722684029389663,-0.13184501257448958
0.13425,-0.01074579369360719,-0.13280509388717318
0.134375,-0.011722684029389663,-0.13428214206053252
0.1345,-0.010257348525715955,-0.13378363830202375
0.134625,-0.010257348525715955,-0.13184501257448958
0.13475,-0.008303567854151012,-0.13330359764568195
0.134875,-0.008792013022042248,-0.13330359764568195
0.135,-0.007326677518368539,-0.13280509388717318
0.135125,-0.007815122686259775,-0.13330359764568195
0.13525,-0.006838232350477303,-0.13330359764568195
0.135375,-0.005861342014694832,-0.13280509388717318
0.1355,-0.004884451678912359,-0.13378363830202375
0.135625,-0.005372896846803595,-0.13378363830202375
0.13575,-0.003907561343129888,-0.13378363830202375
0.135875,-0.004396006511021124,-0.13330359764568195
0.136,-0.0034191161752386515,-0.13280509388717318
0.136125,-0.002930671007347416,-0.13184501257448958
0.13625,-0.0024422258394561796,-0.13184501257448958
0.136375,-0.0024422258394561796,-0.13184501257448958
0.1365,-0.000976890335782472,-0.13184501257448958
0.136625,-0.002930671007347416,-0.13184501257448958
0.13675,-0.000488445167891236,-0.13280509388717318
0.136875,-0.000976890335782472,-0.13330359764568195
0.137,-0.000488445167891236,-0.13184501257448958
0.137125,-0.001465335503673708,-0.13184501257448958
0.13725,-0.000488445167891236,-0.130866468159639
0.137375,-0.000976890335782472,-0.12988792374478844
0.1375,0.000488445167891236,-0.12988792374478844
0.137625,-0.001465335503673708,-0.12890937932993787
0.13775,-0.001465335503673708,-0.1279308349150873
0.137875,-0.001953780671564944,-0.1269522905002367
0.138,-0.000976890335782472,-0.12890937932993787
0.138125,-0.0024422258394561796,-0.12938941998627965
0.13825,-0.001465335503673708,-0.1279308349150873
0.138375,-0.002930671007347416,-0.12597374608538614
0.1385,-0.002930671007347416,-0.12597374608538614
0.138625,-0.004396006511021124,-0.12451516101419378
0.13875,-0.003907561343129888,-0.12401665725568499
0.138875,-0.004884451678912359,-0.12401665725568499
0.139,-0.004884451678912359,-0.1235366165993432
0.139125,-0.005861342014694832,-0.1235366165993432
0.13925,-0.005372896846803595,-0.12451516101419378
0.139375,-0.006838232350477303,-0.12499520167053557
0.1395,-0.006349787182586067,-0.1235366165993432
0.139625,-0.007326677518368539,-0.12303811284083442
0.13975,-0.007326677518368539,-0.12303811284083442
0.139875,-0.007815122686259775,-0.12207803152815085
0.14,-0.007815122686259775,-0.12255807218449263
0.140125,-0.008303567854151012,-0.12207803152815085
0.14025,-0.007815122686259775,-0.12109948711330026
0.140375,-0.008792013022042248,-0.12207803152815085
0.1405,-0.007326677518368539,-0.12207803152815085
0.140625,-0.007815122686259775,-0.12255807218449263
0.14075,-0.006838232350477303,-0.12157952776964205
0.140875,-0.008303567854151012,-0.12157952776964205
0.141,-0.006838232350477303,-0.12157952776964205
0.141125,-0.008303567854151012,-0.12109948711330026
0.14125,-0.007815122686259775,-0.1201209426984497
0.141375,-0.007815122686259775,-0.1201209426984497
0.1415,-0.007326677518368539,-0.1201209426984497
0.141625,-0.006838232350477303,-0.1201209426984497
0.14175,-0.007326677518368539,-0.12157952776964205
0.141875,-0.007815122686259775,-0.12207803152815085
0.142,-0.007326677518368539,-0.1201209426984497
0.142125,-0.008303567854151012,-0.11914239828359911
0.14225,-0.007326677518368539,-0.1201209426984497
0.142375,-0.008303567854151012,-0.11914239828359911
0.1425,-0.007815122686259775,-0.11962243893994091
0.142625,-0.008303567854151012,-0.11914239828359911
0.14275,-0.007815122686259775,-0.11816385386874854
0.142875,-0.008303567854151012,-0.11816385386874854
0.143,-0.007815122686259775,-0.11914239828359911
0.143125,-0.009280458189933482,-0.11914239828359911
0.14325,-0.007815122686259775,-0.11718530945389798
0.143375,-0.008792013022042248,-0.11816385386874854
0.1435,-0.008792013022042248,-0.11816385386874854
0.143625,-0.009768903357824718,-0.11718530945389798
0.14375,-0.010257348525715955,-0.11768381321240676
0.143875,-0.009768903357824718,-0.1162067650390474
0.144,-0.009280458189933482,-0.1162067650390474
0.144125,-0.009768903357824718,-0.1162067650390474
0.14425,-0.009280458189933482,-0.11768381321240676
0.144375,-0.010257348525715955,-0.11816385386874854
0.1445,-0.010257348525715955,-0.1162067650390474
0.144625,-0.01074579369360719,-0.11670526879755617
0.14475,-0.009768903357824718,-0.1162067650390474
0.144875,-0.01074579369360719,-0.11522822062419683
0.145,-0.010257348525715955,-0.11522822062419683
0.145125,-0.01074579369360719,-0.11522822062419683
0.14525,-0.008792013022042248,-0.11424967620934624
0.145375,-0.01074579369360719,-0.11376963555300446
0.1455,-0.010257348525715955,-0.11522822062419683
0.145625,-0.01074579369360719,-0.11424967620934624
0.14575,-0.010257348525715955,-0.11328959489666267
0.145875,-0.01074579369360719,-0.11328959489666267
0.146,-0.010257348525715955,-0.1123110504818121
0.146125,-0.01074579369360719,-0.1123110504818121
0.14625,-0.0122111291972809,-0.11133250606696152
0.146375,-0.0122111291972809,-0.11133250606696152
0.1465,-0.01074579369360719,-0.10937541723726037
0.146625,-0.0122111291972809,-0.11035396165211095
0.14675,-0.011234238861498427,-0.11035396165211095
0.146875,-0.0122111291972809,-0.11133250606696152
0.147,-0.011722684029389663,-0.10889537658091858
0.147125,-0.012699574365172134,-0.1083968728224098
0.14725,-0.0122111291972809,-0.1083968728224098
0.147375,-0.012699574365172134,-0.10741832840755923
0.1475,-0.0122111291972809,-0.10741832840755923
0.147625,-0.012699574365172134,-0.10643978399270865
0.14775,-0.011722684029389663,-0.10595974333636686
0.147875,-0.012699574365172134,-0.10450115826517449
0.148,-0.01318801953306337,-0.10595974333636686
0.148125,-0.013667419420067732,-0.10546123957785808
0.14825,-0.012699574365172134,-0.10352261385032392
0.148375,-0.013667419420067732,-0.10254406943547334
0.1485,-0.012699574365172134,-0.10254406943547334
0.148625,-0.014155864587958967,-0.10254406943547334
0.14875,-0.014155864587958967,-0.1005869806057722
0.148875,-0.014644309755850203,-0.09960843619092162
0.149,-0.012699574365172134,-0.09814985111972926
0.149125,-0.013667419420067732,-0.09862989177607105
0.14925,-0.012699574365172134,-0.09862989177607105
0.149375,-0.013667419420067732,-0.09765134736122048
0.1495,-0.01318801953306337,-0.09569425853151933
0.149625,-0.014155864587958967,-0.09473417721883574
0.14975,-0.01318801953306337,-0.09375563280398518
0.149875,-0.013667419420067732,-0.0927770883891346
0.15,-0.01318801953306337,-0.09179854397428402
0.150125,-0.012699574365172134,-0.09081999955943346
0.15025,-0.0122111291972809,-0.0888629107297323
0.150375,-0.012699574365172134,-0.0888629107297323
0.1505,-0.0122111291972809,-0.08838287007339052
0.150625,-0.012699574365172134,-0.08788436631488172
0.15075,-0.011722684029389663,-0.084967196172497
0.150875,-0.012699574365172134,-0.08398865175764643
0.151,-0.011234238861498427,-0.08301010734279585
0.151125,-0.0122111291972809,-0.08203156292794528
0.15125,-0.011234238861498427,-0.08105301851309471
0.151375,-0.0122111291972809,-0.07909592968339356
0.1515,-0.011722684029389663,-0.0771573039558594
0.151625,-0.0122111291972809,-0.0771573039558594
0.15175,-0.011234238861498427,-0.0771573039558594
0.151875,-0.011722684029389663,-0.07617875954100883
0.152,-0.011234238861498427,-0.07470171136764947
0.152125,-0.0122111291972809,-0.0732431262964571
0.15225,-0.011722684029389663,-0.07128603746675596
0.152375,-0.012699574365172134,-0.07080599681041416
0.1525,-0.011722684029389663,-0.06932894863705481
0.152625,-0.0122111291972809,-0.06835040422220423
0.15275,-0.011234238861498427,-0.06739032290952066
0.152875,-0.0122111291972809,-0.06739032290952066
0.153,-0.011722684029389663,-0.06739032290952066
0.153125,-0.012699574365172134,-0.06641177849467009
0.15325,-0.011722684029389663,-0.06347614525011835
0.153375,-0.011234238861498427,-0.06347614525011835
0.1535,-0.01074579369360719,-0.062497600835267786
0.153625,-0.01074579369360719,-0.060540512005566635
0.15375,-0.010257348525715955,-0.06151905642041721
0.153875,-0.01074579369360719,-0.05956196759071606
0.154,-0.010257348525715955,-0.05762334186318191
0.154125,-0.009768903357824718,-0.05762334186318191
0.15425,-0.008792013022042248,-0.05762334186318191
0.154375,-0.008792013022042248,-0.056644797448331334
0.1545,-0.008792013022042248,-0.05468770861863018
0.154625,-0.008303567854151012,-0.05516774927497198
0.15475,-0.006838232350477303,-0.05273061978892904
0.154875,-0.007326677518368539,-0.051752075374078464
0.155,-0.006349787182586067,-0.05127203471773667
0.155125,-0.006349787182586067,-0.04883490523169373
0.15525,-0.004884451678912359,-0.04883490523169373
0.155375,-0.004884451678912359,-0.04883490523169373
0.1555,-0.004884451678912359,-0.049314945888035526
0.155625,-0.004884451678912359,-0.04785636081684316
0.15575,-0.004396006511021124,-0.04589927198714201
0.155875,-0.004884451678912359,-0.04492072757229144
0.156,-0.0034191161752386515,-0.043462142501099074
0.156125,-0.004396006511021124,-0.04296363874259029
0.15625,-0.0034191161752386515,-0.04198509432773972
0.156375,-0.004396006511021124,-0.04004646860020556
0.1565,-0.002930671007347416,-0.03954796484169678
0.156625,-0.004396006511021124,-0.04004646860020556
0.15675,-0.004396006511021124,-0.03954796484169678
0.156875,-0.004884451678912359,-0.03808937977050442
0.157,-0.0034191161752386515,-0.03711083535565384
0.157125,-0.004884451678912359,-0.036132290940803266
0.15725,-0.004396006511021124,-0.03565225028446147
0.157375,-0.005372896846803595,-0.03319665769625155
0.1575,-0.005372896846803595,-0.03369516145476033
0.157625,-0.005861342014694832,-0.03173807262505918
0.15775,-0.006349787182586067,-0.03173807262505918
0.157875,-0.005861342014694832,-0.03125803196871739
0.158,-0.005372896846803595,-0.03125803196871739
0.158125,-0.006838232350477303,-0.030279487553866814
0.15825,-0.006349787182586067,-0.027823894965656883
0.158375,-0.007326677518368539,-0.02636530989446452
0.1585,-0.006349787182586067,-0.025386765479613944
0.158625,-0.007326677518368539,-0.025386765479613944
0.15875,-0.006838232350477303,-0.02392818040842158
0.158875,-0.007815122686259775,-0.02149105092237864
0.159,-0.007326677518368539,-0.019533962092677493
0.159125,-0.008303567854151012,-0.01855541767782692
0.15925,-0.007326677518368539,-0.01855541767782692
0.159375,-0.007815122686259775,-0.016118288191783983
0.1595,-0.007326677518368539,-0.014641240018424624
0.159625,-0.007326677518368539,-0.01366269560357405
0.15975,-0.006838232350477303,-0.011724069876039895
0.159875,-0.007326677518368539,-0.01074552546118932
0.16,-0.006838232350477303,-0.008788436631488173
0.160125,-0.007326677518368539,-0.006831347801787025
0.16025,-0.006349787182586067,-0.004874258972085877
0.160375,-0.006838232350477303,-0.005852803386936451
0.1605,-0.006349787182586067,-0.006831347801787025
0.160625,-0.006838232350477303,-0.003914177659402295
0.16075,-0.006349787182586067,-0.0014585850711923648
0.160875,-0.007815122686259775,-0.0014585850711923648
0.161,-0.007326677518368539,0.0
0.161125,-0.007815122686259775,0.0009785444148505738
0.16125,-0.007326677518368539,0.0014585850711923648
0.161375,-0.007815122686259775,0.0024371294860429387
0.1615,-0.007326677518368539,0.0029356332445517217
0.161625,-0.008303567854151012,0.0029356332445517217
0.16175,-0.007815122686259775,0.0029356332445517217
0.161875,-0.008303567854151012,0.003914177659402295
0.162,-0.007815122686259775,0.004874258972085877
0.162125,-0.008303567854151012,0.004394218315744086
0.16225,-0.007326677518368539,0.004874258972085877
0.162375,-0.008792013022042248,0.004874258972085877
0.1625,-0.007815122686259775,0.00537276273059466
0.162625,-0.008792013022042248,0.005852803386936451
0.16275,-0.007815122686259775,0.005852803386936451
0.162875,-0.007815122686259775,0.004874258972085877
0.163,-0.006838232350477303,0.004874258972085877
0.163125,-0.007815122686259775,0.004874258972085877
0.16325,-0.007815122686259775,0.00537276273059466
0.163375,-0.008303567854151012,0.004874258972085877
0.1635,-0.007815122686259775,0.004874258972085877
0.163625,-0.008792013022042248,0.005852803386936451
0.16375,-0.008303567854151012,0.00537276273059466
0.163875,-0.008792013022042248,0.005852803386936451
0.164,-0.007815122686259775,0.00537276273059466
0.164125,-0.009768903357824718,0.003914177659402295
0.16425,-0.009280458189933482,0.0034156739008935127
0.164375,-0.010257348525715955,0.004874258972085877
0.1645,-0.009768903357824718,0.00537276273059466
0.164625,-0.01074579369360719,0.004394218315744086
0.16475,-0.01074579369360719,0.004394218315744086
0.164875,-0.011722684029389663,0.003914177659402295
0.165,-0.011722684029389663,0.003914177659402295
0.165125,-0.012699574365172134,0.004874258972085877
0.16525,-0.0122111291972809,0.0034156739008935127
0.165375,-0.012699574365172134,0.0019570888297011477
0.1655,-0.01318801953306337,0.0019570888297011477
0.165625,-0.013667419420067732,0.0029356332445517217
0.16575,-0.01318801953306337,0.0009785444148505738
0.165875,-0.014644309755850203,0.0009785444148505738
0.166,-0.014155864587958967,0.0014585850711923648
0.166125,-0.01610964525952391,0.0
0.16625,-0.014644309755850203,0.0009785444148505738
0.166375,-0.015621200091632675,-0.0009785444148505738
0.1665,-0.014644309755850203,-0.0019570888297011477
0.166625,-0.01610964525952391,-0.003914177659402295
0.16675,-0.015621200091632675,-0.004394218315744086
0.166875,-0.016598090427415148,-0.003914177659402295
0.167,-0.01610964525952391,-0.004874258972085877
0.167125,-0.016598090427415148,-0.005852803386936451
0.16725,-0.016598090427415148,-0.006831347801787025
0.167375,-0.016598090427415148,-0.006831347801787025
0.1675,-0.016598090427415148,-0.008308395975146382
0.167625,-0.016598090427415148,-0.008788436631488173
0.16775,-0.016598090427415148,-0.009766981046338746
0.167875,-0.01757498076319762,-0.012702614290890469
0.168,-0.016598090427415148,-0.01366269560357405
0.168125,-0.01757498076319762,-0.01366269560357405
0.16825,-0.01610964525952391,-0.014641240018424624
0.168375,-0.01757498076319762,-0.016598328848125773
0.1685,-0.01610964525952391,-0.017576873262976345
0.168625,-0.01757498076319762,-0.01855541767782692
0.16875,-0.01610964525952391,-0.019533962092677493
0.168875,-0.015621200091632675,-0.020014002749019284
0.169,-0.01513275492374144,-0.02149105092237864
0.169125,-0.014644309755850203,-0.024408221064763373
0.16925,-0.014644309755850203,-0.02588526923812273
0.169375,-0.014644309755850203,-0.024408221064763373
0.1695,-0.014155864587958967,-0.025386765479613944
0.169625,-0.013667419420067732,-0.02636530989446452
0.16975,-0.0122111291972809,-0.02636530989446452
0.169875,-0.012699574365172134,-0.028322398724165667
0.17,-0.011722684029389663,-0.028322398724165667
0.170125,-0.01074579369360719,-0.02930094313901624
0.17025,-0.011234238861498427,-0.030279487553866814
0.170375,-0.011722684029389663,-0.03221811328140097
0.1705,-0.01074579369360719,-0.03221811328140097
0.170625,-0.01074579369360719,-0.03319665769625155
0.17075,-0.010257348525715955,-0.034175202111102115
0.170875,-0.01074579369360719,-0.034175202111102115
0.171,-0.010257348525715955,-0.036132290940803266
0.171125,-0.01074579369360719,-0.036132290940803266
0.17125,-0.010257348525715955,-0.036132290940803266
0.171375,-0.010257348525715955,-0.036132290940803266
0.1715,-0.009280458189933482,-0.03808937977050442
0.171625,-0.009280458189933482,-0.04100654991288914
0.17175,-0.008792013022042248,-0.04198509432773972
0.171875,-0.009768903357824718,-0.04100654991288914
0.172,-0.008792013022042248,-0.04198509432773972
0.172125,-0.009280458189933482,-0.043462142501099074
0.17225,-0.008303567854151012,-0.043462142501099074
0.172375,-0.008792013022042248,-0.04394218315744086
0.1725,-0.007326677518368539,-0.04394218315744086
0.172625,-0.007815122686259775,-0.04492072757229144
0.17275,-0.006838232350477303,-0.047357857058334375
0.172875,-0.007326677518368539,-0.04883490523169373
0.173,-0.006349787182586067,-0.04883490523169373
0.173125,-0.005861342014694832,-0.04883490523169373
0.17325,-0.004884451678912359,-0.04981344964654431
0.173375,-0.004884451678912359,-0.05077353095922789
0.1735,-0.004396006511021124,-0.051752075374078464
0.173625,-0.004396006511021124,-0.05273061978892904
0.17375,-0.002930671007347416,-0.05322912354743782
0.173875,-0.002930671007347416,-0.053709164203779615
0.174,-0.000976890335782472,-0.05516774927497198
0.174125,-0.000976890335782472,-0.05762334186318191
0.17425,0.000976890335782472,-0.05860188627803248
0.174375,0.000976890335782472,-0.05860188627803248
0.1745,0.0024422258394561796,-0.05956196759071606
0.174625,0.002930671007347416,-0.05956196759071606
0.17475,0.004396006511021124,-0.060540512005566635
0.174875,0.004884451678912359,-0.062497600835267786
0.175,0.006838232350477303,-0.062497600835267786
0.175125,0.006838232350477303,-0.06347614525011835
0.17525,0.009280458189933482,-0.06641177849467009
0.175375,0.009280458189933482,-0.06835040422220423
0.1755,0.011234238861498427,-0.06884890798071303
0.175625,0.011234238861498427,-0.06835040422220423
0.17575,0.013667419420067732,-0.07080599681041416
0.175875,0.014644309755850203,-0.07128603746675596
0.176,0.016598090427415148,-0.07226458188160653
0.176125,0.016598090427415148,-0.07422167071130768
0.17625,0.018063425931088856,-0.07470171136764947
0.176375,0.018551871098980093,-0.07520021512615825
0.1765,0.020505651770545034,-0.0771573039558594
0.176625,0.02099409693843627,-0.07909592968339356
0.17675,0.02245943244210998,-0.08007447409824413
0.176875,0.02245943244210998,-0.08007447409824413
0.177,0.024413213113674923,-0.08203156292794528
0.177125,0.024413213113674923,-0.08203156292794528
0.17725,0.025878548617348632,-0.08301010734279585
0.177375,0.026366993785239868,-0.08398865175764643
0.1775,0.027832329288913573,-0.084967196172497
0.177625,0.02929766479258728,-0.084967196172497
0.17775,0.029786109960478518,-0.08690582190003115
0.177875,0.02929766479258728,-0.08984145514458287
0.178,0.031251445464152226,-0.0888629107297323
0.178125,0.031251445464152226,-0.08788436631488172
0.17825,0.0322283357999347,-0.0888629107297323
0.178375,0.0322283357999347,-0.08984145514458287
0.1785,0.03271678096782593,-0.09081999955943346
0.178625,0.03320522613571717,-0.09179854397428402
0.17875,0.03418211647149964,-0.09179854397428402
0.178875,0.03418211647149964,-0.09179854397428402
0.179,0.034670561639390876,-0.0927770883891346
0.179125,0.03418211647149964,-0.09473417721883574
0.17925,0.03613589714306459,-0.09473417721883574
0.179375,0.03662434231095582,-0.09569425853151933
0.1795,0.03760123264673829,-0.09619276229002811
0.179625,0.03711278747884706,-0.09569425853151933
0.17975,0.038578122982520766,-0.09619276229002811
0.179875,0.038089677814629526,-0.0966728029463699
0.18,0.04004345848619447,-0.0966728029463699
0.180125,0.039066568150412,-0.0966728029463699
0.18025,0.04198819387687254,-0.09862989177607105
0.180375,0.04198819387687254,-0.09960843619092162
0.1805,0.04247663904476378,-0.09960843619092162
0.180625,0.04198819387687254,-0.09960843619092162
0.18075,0.04296508421265501,-0.10008847684726342
0.180875,0.04296508421265501,-0.09960843619092162
0.181,0.044430419716328724,-0.10156552502062277
0.181125,0.043941974548437485,-0.10204556567696456
0.18125,0.044430419716328724,-0.10254406943547334
0.181375,0.043941974548437485,-0.10254406943547334
0.1815,0.04589575522000243,-0.10450115826517449
0.181625,0.04491886488421996,-0.10643978399270865
0.18175,0.04589575522000243,-0.10546123957785808
0.181875,0.04589575522000243,-0.10450115826517449
0.182,0.0468726455557849,-0.10643978399270865
0.182125,0.04589575522000243,-0.10643978399270865
0.18225,0.0468726455557849,-0.10791683216606801
0.182375,0.04589575522000243,-0.1083968728224098
0.1825,0.0468726455557849,-0.1083968728224098
0.182625,0.0468726455557849,-0.10985545789360217
0.18275,0.047849535891567374,-0.11133250606696152
0.182875,0.0468726455557849,-0.11376963555300446
0.183,0.047849535891567374,-0.11376963555300446
0.183125,0.0468726455557849,-0.11424967620934624
0.18325,0.047849535891567374,-0.11424967620934624
0.183375,0.047849535891567374,-0.11522822062419683
0.1835,0.047361090723676134,-0.1162067650390474
0.183625,0.047849535891567374,-0.1162067650390474
0.18375,0.04833798105945861,-0.1162067650390474
0.183875,0.047849535891567374,-0.11718530945389798
0.184,0.04833798105945861,-0.11768381321240676
0.184125,0.047849535891567374,-0.11816385386874854
0.18425,0.04833798105945861,-0.11768381321240676
0.184375,0.04833798105945861,-0.11816385386874854
0.1845,0.04931487139524108,-0.11864389452509033
0.184625,0.048826426227349846,-0.11914239828359911
0.18475,0.048826426227349846,-0.11914239828359911
0.184875,0.048826426227349846,-0.11914239828359911
0.185,0.05029176173102355,-0.11914239828359911
0.185125,0.05029176173102355,-0.1201209426984497
0.18525,0.051268652066806024,-0.12207803152815085
0.185375,0.051757097234697264,-0.1235366165993432
0.1855,0.052733987570479736,-0.12303811284083442
0.185625,0.051757097234697264,-0.12303811284083442
0.18575,0.0537108779062622,-0.12303811284083442
0.185875,0.0537108779062622,-0.1235366165993432
0.186,0.05517621340993591,-0.1235366165993432
0.186125,0.055664658577827146,-0.12451516101419378
0.18625,0.05664154891360962,-0.12499520167053557
0.186375,0.05761843924939209,-0.12597374608538614
0.1865,0.05810688441728333,-0.1279308349150873
0.186625,0.05810688441728333,-0.12938941998627965
0.18675,0.060060665088848275,-0.1279308349150873
0.186875,0.06054911025673951,-0.1279308349150873
0.187,0.06201444576041321,-0.12938941998627965
0.187125,0.06250289092830445,-0.12938941998627965
0.18725,0.06396822643197816,-0.12938941998627965
0.187375,0.0644566715998694,-0.12988792374478844
0.1875,0.06543356193565186,-0.12938941998627965
0.187625,0.06592200710354311,-0.12890937932993787
0.18775,0.06786674249422117,-0.12988792374478844
0.187875,0.0683551876621124,-0.12988792374478844
0.188,0.07030896833367735,-0.12841087557142908
0.188125,0.07128585866945983,-0.12890937932993787
0.18825,0.07177430383735106,-0.1279308349150873
0.188375,0.07323963934102477,-0.1269522905002367
0.1885,0.07470497484469847,-0.12597374608538614
0.188625,0.07519342001258972,-0.12401665725568499
0.18875,0.07812409101993713,-0.12303811284083442
0.188875,0.0791009813557196,-0.12207803152815085
0.189,0.08105476202728454,-0.1235366165993432
0.189125,0.08154320719517578,-0.12207803152815085
0.18925,0.08349698786674073,-0.11962243893994091
0.189375,0.08545076853830566,-0.11914239828359911
0.1895,0.0874045492098706,-0.11864389452509033
0.189625,0.08886988471354432,-0.11816385386874854
0.18975,0.09228900088878297,-0.1162067650390474
0.189875,0.0927774460566742,-0.1162067650390474
0.19,0.09618751695102598,-0.11522822062419683
0.190125,0.09569907178313475,-0.11424967620934624
0.19025,0.09862974279048216,-0.11522822062419683
0.190375,0.09960663312626464,-0.11522822062419683
0.1905,0.10253730413361205,-0.1123110504818121
0.190625,0.10351419446939453,-0.1123110504818121
0.19075,0.10546797514095947,-0.1123110504818121
0.190875,0.10644486547674194,-0.11133250606696152
0.191,0.10791020098041565,-0.11035396165211095
0.191125,0.11035242681987183,-0.10985545789360217
0.19125,0.112794652659328,-0.1083968728224098
0.191375,0.112794652659328,-0.1083968728224098
0.1915,0.11572532366667541,-0.10937541723726037
0.191625,0.11621376883456666,-0.10937541723726037
0.19175,0.11865599467402284,-0.10741832840755923
0.191875,0.11914443984191407,-0.10643978399270865
0.192,0.12157762040048338,-0.10595974333636686
0.192125,0.12304295590415708,-0.10450115826517449
0.19225,0.12548518174361326,-0.10352261385032392
0.192375,0.1259736269115045,-0.10254406943547334
0.1925,0.1289042979188519,-0.1005869806057722
0.192625,0.12939274308674314,-0.1005869806057722
0.19275,0.13183496892619934,-0.10008847684726342
0.192875,0.1328118592619818,-0.09862989177607105
0.193,0.13476563993354676,-0.09619276229002811
0.193125,0.13574253026932923,-0.09569425853151933
0.19325,0.1381847561087854,-0.09473417721883574
0.193375,0.13867320127667662,-0.09375563280398518
0.1935,0.14062698194824158,-0.09227858463062581
0.193625,0.14160387228402405,-0.09179854397428402
0.19375,0.143557652955589,-0.09033995890309165
0.193875,0.14404609812348024,-0.09081999955943346
0.194,0.14599987879504517,-0.09081999955943346
0.194125,0.1464883239629364,-0.09033995890309165
0.19425,0.1474652142987189,-0.0888629107297323
0.194375,0.1474652142987189,-0.0888629107297323
0.1945,0.1489215045215057,-0.08838287007339052
0.194625,0.14843305935361448,-0.08788436631488172
0.19475,0.14989839485728818,-0.0888629107297323
0.194875,0.15038684002517944,-0.0888629107297323
0.195,0.15087528519307067,-0.08838287007339052
0.195125,0.15038684002517944,-0.09033995890309165
0.19525,0.15087528519307067,-0.09081999955943346
0.195375,0.15038684002517944,-0.09179854397428402
0.1955,0.1513637303609619,-0.09081999955943346
0.195625,0.15038684002517944,-0.09179854397428402
0.19575,0.1513637303609619,-0.09227858463062581
0.195875,0.15038684002517944,-0.0927770883891346
0.196,0.15087528519307067,-0.09375563280398518
0.196125,0.14940994968939694,-0.09375563280398518
0.19625,0.14989839485728818,-0.09375563280398518
0.196375,0.14940994968939694,-0.09521421787517753
0.1965,0.1489215045215057,-0.09765134736122048
0.196625,0.14843305935361448,-0.0966728029463699
0.19675,0.14795365946661013,-0.0966728029463699
0.196875,0.14697676913082763,-0.09814985111972926
0.197,0.14599987879504517,-0.09814985111972926
0.197125,0.14551143362715394,-0.09765134736122048
0.19725,0.14551143362715394,-0.09814985111972926
0.197375,0.14453454329137147,-0.09814985111972926
0.1975,0.14404609812348024,-0.09814985111972926
0.197625,0.143557652955589,-0.09862989177607105
0.19775,0.143557652955589,-0.09960843619092162
0.197875,0.14209231745191528,-0.09960843619092162
0.198,0.1411154271161328,-0.09765134736122048
0.198125,0.14160387228402405,-0.09765134736122048
0.19825,0.14062698194824158,-0.09717130670487868
0.198375,0.13965009161245912,-0.0966728029463699
0.1985,0.13867320127667662,-0.09619276229002811
0.198625,0.1367194206051117,-0.09473417721883574
0.19875,0.13623097543722046,-0.09375563280398518
0.198875,0.13476563993354676,-0.09375563280398518
0.199,0.1342771947656555,-0.09375563280398518
0.199125,0.13232341409409057,-0.09179854397428402
0.19925,0.1303696334225256,-0.09033995890309165
0.199375,0.12841585275096068,-0.0888629107297323
0.1995,0.12792740758306945,-0.08690582190003115
0.199625,0.12499673657572202,-0.08594574058734758
0.19975,0.12353140107204832,-0.08398865175764643
0.199875,0.12109822051347902,-0.08251160358428707
0.2,0.12060977534558778,-0.08105301851309471
0.200125,0.11719065917034913,-0.08007447409824413
0.20025,0.11425998816300172,-0.07909592968339356
0.200375,0.11181776232354554,-0.07617875954100883
0.2005,0.11035242681987183,-0.0732431262964571
0.200625,0.10693331064463317,-0.07128603746675596
0.20075,0.10497952997306823,-0.06932894863705481
0.200875,0.1005835234620471,-0.06689181915101187
0.201,0.09862974279048216,-0.06445468966496894
0.201125,0.09472218144735227,-0.06151905642041721
0.20125,0.09228900088878297,-0.05956196759071606
0.201375,0.08886988471354432,-0.05762334186318191
0.2015,0.08545076853830566,-0.05566625303348076
0.201625,0.08154320719517578,-0.053709164203779615
0.20175,0.07958942652361084,-0.051752075374078464
0.201875,0.07519342001258972,-0.04883490523169373
0.202,0.07177430383735106,-0.04589927198714201
0.202125,0.0683551876621124,-0.04296363874259029
0.20225,0.06543356193565186,-0.04004646860020556
0.202375,0.06152600059252198,-0.03711083535565384
0.2025,0.05859532958517456,-0.034175202111102115
0.202625,0.055664658577827146,-0.034175202111102115
0.20275,0.0537108779062622,-0.03319665769625155
0.202875,0.04980331656313232,-0.02930094313901624
0.203,0.047361090723676134,-0.02636530989446452
0.203125,0.04491886488421996,-0.024408221064763373
0.20325,0.04247663904476378,-0.02149105092237864
0.203375,0.04101130354109007,-0.019533962092677493
0.2035,0.039066568150412,-0.016598328848125773
0.203625,0.03613589714306459,-0.01366269560357405
0.20375,0.034670561639390876,-0.010247021702680537
0.203875,0.0322283357999347,-0.009766981046338746
0.204,0.03076300029626099,-0.008788436631488173
0.204125,0.028809219624696045,-0.003914177659402295
0.20425,0.02832077445680481,-0.0009785444148505738
0.204375,0.026366993785239868,0.0009785444148505738
0.2045,0.02490165828156616,0.0034156739008935127
0.204625,0.02245943244210998,0.0063513071454452345
0.20475,0.020505651770545034,0.009766981046338746
0.204875,0.020505651770545034,0.012702614290890469
0.205,0.01904031626687133,0.014641240018424624
0.205125,0.017086535595306384,0.015619784433275198
0.20525,0.015621200091632675,0.017576873262976345
0.205375,0.013667419420067732,0.020512506507528068
0.2055,0.0122111291972809,0.023429676649912797
0.205625,0.009280458189933482,0.02636530989446452
0.20575,0.008303567854151012,0.028802439380507458
0.205875,0.004884451678912359,0.03125803196871739
0.206,0.0034191161752386515,0.03319665769625155
0.206125,0.000976890335782472,0.036132290940803266
0.20625,-0.001465335503673708,0.03808937977050442
0.206375,-0.004396006511021124,0.040526509256547355
0.2065,-0.007326677518368539,0.0424835980862485
0.206625,-0.010257348525715955,0.04589927198714201
0.20675,-0.014644309755850203,0.04883490523169373
0.206875,-0.016598090427415148,0.0502934903028861
0.207,-0.021970987274218742,0.05273061978892904
0.207125,-0.024413213113674923,0.05566625303348076
0.20725,-0.029786109960478518,0.05762334186318191
0.207375,-0.033693671303608404,0.060540512005566635
0.2075,-0.03760123264673829,0.06347614525011835
0.207625,-0.04149974870898131,0.06347614525011835
0.20775,-0.047849535891567374,0.06445468966496894
0.207875,-0.051268652066806024,0.06835040422220423
0.208,-0.05664154891360962,0.07128603746675596
0.208125,-0.06103755542463074,0.0732431262964571
0.20825,-0.06689889743932557,0.07520021512615825
0.208375,-0.07128585866945983,0.0771573039558594
0.2085,-0.07714720068415465,0.07909592968339356
0.208625,-0.0805663168593933,0.08301010734279585
0.20875,-0.08691610404197937,0.08594574058734758
0.208875,-0.09180055572089173,0.08544723682883879
0.209,-0.09667596211891721,0.08788436631488172
0.209125,-0.10204885896572082,0.0932571290454764
0.20925,-0.10839864614830688,0.09473417721883574
0.209375,-0.11377154299511048,0.0966728029463699
0.2095,-0.11914443984191407,0.09960843619092162
0.209625,-0.12353140107204832,0.10254406943547334
0.20975,-0.12988118825463438,0.10546123957785808
0.209875,-0.13476563993354676,0.10889537658091858
0.21,-0.13965009161245912,0.11133250606696152
0.210125,-0.14551143362715394,0.11328959489666267
0.21025,-0.15038684002517944,0.11522822062419683
0.210375,-0.1552712917040918,0.11914239828359911
0.2105,-0.1611326337187866,0.12109948711330026
0.210625,-0.16601708539769897,0.12499520167053557
0.21075,-0.1704130919087201,0.1274323311565785
0.210875,-0.17577694347463682,0.12938941998627965
0.211,-0.18017294998565794,0.13232505323083138
0.211125,-0.18456895649667907,0.13476218271687432
0.21125,-0.18945340817559142,0.13671927154657545
0.211375,-0.19531475019028627,0.13769781596142605
0.2115,-0.19922231153341613,0.14063344920597776
0.211625,-0.2050746082672241,0.14452916376321306
0.21175,-0.20800527927457152,0.1464862525929142
0.211875,-0.21386662128926634,0.14942188583746593
0.212,-0.217285737464505,0.15185901532350887
0.212125,-0.22265863431130858,0.1542961448095518
0.21225,-0.22656619565443847,0.15625323363925295
0.212375,-0.23144160205246397,0.15918886688380468
0.2125,-0.2358376085634851,0.16112749261133882
0.212625,-0.24072206024239745,0.16210603702618942
0.21275,-0.24462962158552734,0.16406312585589056
0.212875,-0.24902562809654846,0.1669987591004423
0.213,-0.2524447442717871,0.16893738482797643
0.213125,-0.2578085958377038,0.17089447365767757
0.21325,-0.2612277120129425,0.1738301069022293
0.213375,-0.2656237185239636,0.17578719573193044
0.2135,-0.268554389531311,0.1777258214594646
0.213625,-0.2724619508744409,0.18066145470401632
0.21375,-0.2763695122175708,0.1816399991188669
0.213875,-0.28125396389648316,0.1816399991188669
0.214,-0.2841755896229437,0.18457563236341862
0.214125,-0.2890600413018561,0.1865142580909528
0.21425,-0.2919907123092035,0.18896985067916272
0.214375,-0.29589827365233334,0.19140698016520566
0.2145,-0.299317389827572,0.1933640689949068
0.214625,-0.3032249511707019,0.19532115782460793
0.21475,-0.3061556221780493,0.19823832796699267
0.214875,-0.30957473835328797,0.20019541679669384
0.215,-0.3129848092476398,0.2011739612115444
0.215125,-0.31689237059076963,0.20215250562639497
0.21525,-0.31884615126233457,0.2045896351124379
0.215375,-0.3222652674375732,0.20702676459848085
0.2155,-0.32373060294124695,0.20996239784303258
0.215625,-0.3271497191164856,0.21094094225788315
0.21575,-0.32910349978805054,0.21385811240026786
0.215875,-0.33203417079539793,0.21581520122996903
0.216,-0.33349950629907166,0.21875083447452073
0.216125,-0.3349648418027454,0.22168646771907247
0.21625,-0.3369095771934234,0.22168646771907247
0.216375,-0.3388633578649884,0.22216650837541427
0.2165,-0.33984024820077086,0.2246036378614572
0.216625,-0.3408171385365533,0.2275392711060089
0.21675,-0.34277091920811825,0.22949635993571008
0.216875,-0.3437478095439007,0.23193348942175301
0.217,-0.344236254711792,0.23437061890779595
0.217125,-0.3457015902154657,0.23534916332264652
0.21725,-0.3461900353833569,0.23778629280868946
0.217375,-0.3471669257191394,0.24120196670958297
0.2175,-0.3471669257191394,0.24170047046809176
0.217625,-0.3486322612228131,0.2431590555392841
0.21775,-0.3486322612228131,0.24561464812749403
0.217875,-0.34960915155859557,0.24903032202838757
0.218,-0.3491207063907043,0.2500088664432381
0.218125,-0.3500975967264868,0.2519474921707723
0.21825,-0.3500975967264868,0.2539045810004734
0.218375,-0.35058604189437803,0.2558616698301746
0.2185,-0.35058604189437803,0.2587973030747263
0.218625,-0.3515629322301605,0.2607359288022605
0.21875,-0.3500975967264868,0.26171447321711105
0.218875,-0.35058604189437803,0.26171447321711105
0.219,-0.3500975967264868,0.2636715620468122
0.219125,-0.35058604189437803,0.26758573970621446
0.21925,-0.3491207063907043,0.26854582101889807
0.219375,-0.34960915155859557,0.2705029098485992
0.2195,-0.34814381605492184,0.27245999867830034
0.219625,-0.34814381605492184,0.2744170875080015
0.21975,-0.34667848055124817,0.2753956319228521
0.219875,-0.34667848055124817,0.27637417633770267
0.22,-0.3447246998796832,0.2783128020652368
0.220125,-0.3447246998796832,0.27929134648008735
0.22025,-0.3432593643760095,0.2807683946534467
0.220375,-0.34277091920811825,0.284664109210682
0.2205,-0.3408171385365533,0.2851626129691908
0.220625,-0.33984024820077086,0.2875997424552338
0.22075,-0.3378864675292059,0.2900368719412767
0.220875,-0.3369095771934234,0.29199396077097783
0.221,-0.3349648418027454,0.29395104960067897
0.221125,-0.3330110611311804,0.29588967532821314
0.22125,-0.33105728045961547,0.2968682197430637
0.221375,-0.33056883529172426,0.2968682197430637
0.2215,-0.3276381642843768,0.29980385298761547
0.221625,-0.32617282878070314,0.3017609418173166
0.22175,-0.32421904810913815,0.3027394862321672
0.221875,-0.3232421577733557,0.3056566563745519
0.222,-0.321776822269682,0.30761374520425305
0.222125,-0.3203114867660083,0.3095708340339542
0.22225,-0.3178692609265521,0.31054937844880476
0.222375,-0.3173808157586609,0.3125064672785059
0.2225,-0.3149385899192047,0.31348501169335646
0.222625,-0.3154270350870959,0.31444509300604007
0.22275,-0.3129848092476398,0.31592214117939943
0.222875,-0.3124963640797485,0.3183592706654424
0.223,-0.3110310285760748,0.32031635949514353
0.223125,-0.3105425834081836,0.3212949039099941
0.22325,-0.3090862931853967,0.32323352963752827
0.223375,-0.30957473835328797,0.32421207405237884
0.2235,-0.30762095768172304,0.32666766664058877
0.223625,-0.3090862931853967,0.32714770729693055
0.22375,-0.3066440673459406,0.3291047961266317
0.223875,-0.30566717701015805,0.33008334054148225
0.224,-0.30517873184226685,0.3310618849563328
0.224125,-0.30566717701015805,0.33154192561267465
0.22425,-0.3042018415064844,0.33397905509871756
0.224375,-0.3037133963385931,0.3359361439284187
0.2245,-0.3032249511707019,0.3378932327581199
0.224625,-0.3037133963385931,0.33935181782931223
0.22475,-0.30224806083491945,0.34178894731535514
0.224875,-0.3017596156670282,0.3447245805599069
0.225,-0.30127117049913693,0.34276749173020576
0.225125,-0.3017596156670282,0.34276749173020576
0.22525,-0.30029428016335447,0.34668166938960804
0.225375,-0.30127117049913693,0.3486387582193092
0.2255,-0.29980583499546326,0.34961730263415974
0.225625,-0.29980583499546326,0.35057738394684335
0.22575,-0.29980583499546326,0.3515559283616939
0.225875,-0.29980583499546326,0.35351301719139505
0.226,-0.299317389827572,0.35497160226258745
0.226125,-0.29980583499546326,0.35644865043594676
0.22625,-0.299317389827572,0.35644865043594676
0.226375,-0.30127117049913693,0.35644865043594676
0.2265,-0.299317389827572,0.3588857799219897
0.226625,-0.29980583499546326,0.36084286875169086
0.22675,-0.29980583499546326,0.36034436499318206
0.226875,-0.3007827253312457,0.36230145382288326
0.227,-0.30127117049913693,0.36230145382288326
0.227125,-0.30127117049913693,0.3642585426525844
0.22725,-0.30029428016335447,0.36621563148228553
0.227375,-0.30127117049913693,0.3666956721386273
0.2275,-0.30029428016335447,0.3666956721386273
0.227625,-0.3007827253312457,0.3666956721386273
0.22775,-0.29980583499546326,0.36865276096832844
0.227875,-0.30127117049913693,0.37060984979802963
0.228,-0.29980583499546326,0.3710898904543714
0.228125,-0.29980583499546326,0.372068434869222
0.22825,-0.299317389827572,0.37256693862773077
0.228375,-0.2988289446596808,0.37304697928407254
0.2285,-0.29785205432389833,0.3735270199404143
0.228625,-0.29785205432389833,0.3735270199404143
0.22875,-0.2963867188202246,0.37304697928407254
0.228875,-0.29589827365233334,0.3740255236989231
0.229,-0.2939444929807684,0.37598261252862425
0.229125,-0.2949213833165509,0.3764626531849661
0.22925,-0.2924791574770947,0.3764626531849661
0.229375,-0.2919907123092035,0.3769611569434749
0.2295,-0.29003693163763855,0.3784197420146672
0.229625,-0.29003693163763855,0.3793982864295178
0.22975,-0.2885715961339648,0.3808568715007101
0.229875,-0.2871062606302911,0.38183541591556075
0.23,-0.28612937029450863,0.3808568715007101
0.230125,-0.28612937029450863,0.3808568715007101
0.23025,-0.28368714445505244,0.3823154565719025
0.230375,-0.28319869928716124,0.38183541591556075
0.2305,-0.28174240906437437,0.38183541591556075
0.230625,-0.28125396389648316,0.38183541591556075
0.23075,-0.2802770735607007,0.37987832708585956
0.230875,-0.27930018322491823,0.378899782671009
0.231,-0.27734640255335324,0.3784197420146672
0.231125,-0.2763695122175708,0.3764626531849661
0.23125,-0.2753926218817883,0.3735270199404143
0.231375,-0.2753926218817883,0.3715883942128802
0.2315,-0.2729503960423321,0.3715883942128802
0.231625,-0.2724619508744409,0.36817272031198667
0.23175,-0.270508170202876,0.36523708706743496
0.231875,-0.2700197250349847,0.36230145382288326
0.232,-0.268554389531311,0.3574271948507974
0.232125,-0.26757749919552853,0.35644865043594676
0.23225,-0.2651352733560724,0.3530329765350533
0.232375,-0.2641583830202899,0.34961730263415974
0.2325,-0.2612277120129425,0.34374603614505633
0.232625,-0.26025082167716,0.33887177717297046
0.23275,-0.2578085958377038,0.3354561032720769
0.232875,-0.2563432603340301,0.3310618849563328
0.233,-0.2539100797754608,0.32714770729693055
0.233125,-0.2524447442717871,0.32323352963752827
0.23325,-0.2495140732644397,0.31738072625059177
0.233375,-0.248048737760766,0.3125064672785059
0.2335,-0.24511806675341857,0.3085922896191036
0.233625,-0.24316428608185364,0.30371803064701774
0.23375,-0.24121050541028868,0.2968682197430637
0.233875,-0.23925672473872375,0.29101541635612727
0.234,-0.23681449889926756,0.28807978311157556
0.234125,-0.23534916339559386,0.2822269797246391
0.23425,-0.23241849238824644,0.27637417633770267
0.234375,-0.23095315688457274,0.2705029098485992
0.2345,-0.22900842149389466,0.26415160270315396
0.234625,-0.22754308599022097,0.2587973030747263
0.23475,-0.22510086015076478,0.25342454034413164
0.234875,-0.22461241498287354,0.2470732331986864
0.235,-0.22168174397552612,0.2402418853968994
0.235125,-0.22070485363974365,0.23339207449294536
0.23525,-0.21777418263239623,0.2280193117623507
0.235375,-0.217285737464505,0.22168646771907247
0.2355,-0.2148435116250488,0.21581520122996903
0.235625,-0.21386662128926634,0.20996239784303258
0.23575,-0.21142439544981018,0.2041095944560961
0.235875,-0.20995905994613645,0.1972597835521421
0.236,-0.2075168341066803,0.19140698016520566
0.236125,-0.20605149860300656,0.18457563236341862
0.23625,-0.20409771793144163,0.17676574014678104
0.236375,-0.2036092727635504,0.169915929242827
0.2365,-0.20166453737287232,0.16358308519954876
0.236625,-0.20068764703708986,0.15723177805410354
0.23675,-0.1987338663655249,0.15136051156500008
0.236875,-0.19824542119763366,0.14452916376321306
0.237,-0.19629164052606873,0.13769781596142605
0.237125,-0.19629164052606873,0.130866468159639
0.23725,-0.19433785985450377,0.12597374608538614
0.237375,-0.19433785985450377,0.11718530945389798
0.2375,-0.19287252435083008,0.10937541723726037
0.237625,-0.19238407918293884,0.10352261385032392
0.23775,-0.1918956340150476,0.09765134736122048
0.237875,-0.19238407918293884,0.09081999955943346
0.238,-0.19140718884715638,0.08398865175764643
0.238125,-0.1918956340150476,0.0771573039558594
0.23825,-0.19091874367926512,0.07128603746675596
0.238375,-0.1918956340150476,0.0654332340798195
0.2385,-0.19043029851137389,0.05956196759071606
0.238625,-0.19043029851137389,0.05077353095922789
0.23875,-0.19043029851137389,0.0424835980862485
0.238875,-0.19140718884715638,0.036132290940803266
0.239,-0.19043029851137389,0.03125803196871739
0.239125,-0.19140718884715638,0.022949635993571006
0.23925,-0.18994185334348265,0.016598328848125773
0.239375,-0.19043029851137389,0.009766981046338746
0.2395,-0.18994185334348265,0.0034156739008935127
0.239625,-0.19043029851137389,-0.004394218315744086
0.23975,-0.18994185334348265,-0.010247021702680537
0.239875,-0.18994185334348265,-0.01855541767782692
0.24,-0.18945340817559142,-0.02588526923812273
0.240125,-0.18945340817559142,-0.03221811328140097
0.24025,-0.18798807267191772,-0.03808937977050442
0.240375,-0.18847651783980895,-0.04589927198714201
0.2405,-0.186522737168244,-0.051752075374078464
0.240625,-0.186522737168244,-0.05956196759071606
0.24075,-0.18603429200035276,-0.0654332340798195
0.240875,-0.18554584683246153,-0.07128603746675596
0.241,-0.18456895649667907,-0.07811738526854298
0.241125,-0.18408051132878783,-0.084967196172497
0.24125,-0.18212673065722287,-0.0927770883891346
0.241375,-0.18163828548933164,-0.09960843619092162
0.2415,-0.18066139515354918,-0.10450115826517449
0.241625,-0.17870761448198424,-0.11133250606696152
0.24175,-0.17773072414620175,-0.11768381321240676
0.241875,-0.1767538338104193,-0.12303811284083442
0.242,-0.1748090984197412,-0.12938941998627965
0.242125,-0.17383220808395874,-0.13476218271687432
0.24225,-0.17138998224450258,-0.14111348986231956
0.242375,-0.17090153707661132,-0.1474647970077648
0.2425,-0.1689477564050464,-0.1542961448095518
0.242625,-0.16845931123715516,-0.15918886688380468
0.24275,-0.16601708539769897,-0.16308458144104
0.242875,-0.16455174989402527,-0.169915929242827
0.243,-0.16162107888667784,-0.17480865131707987
0.243125,-0.1611326337187866,-0.18018141404767454
0.24325,-0.15869040787933045,-0.18457563236341862
0.243375,-0.15722507237565672,-0.1894498913355045
0.2435,-0.1542944013683093,-0.19434261340975736
0.243625,-0.15331751103252683,-0.20019541679669384
0.24375,-0.15185217552885313,-0.20556817952728848
0.243875,-0.14940994968939694,-0.208983853428182
0.244,-0.14599987879504517,-0.2128980310875843
0.244125,-0.1450229884592627,-0.2167937456448196
0.24425,-0.1425807626198065,-0.2207079233042219
0.244375,-0.14160387228402405,-0.2246036378614572
0.2445,-0.13720786577300292,-0.22949635993571008
0.244625,-0.135254085101438,-0.2324135300780948
0.24475,-0.1313465237583081,-0.23730625215234766
0.244875,-0.12939274308674314,-0.24120196670958297
0.245,-0.1259736269115045,-0.24511614436898527
0.245125,-0.12304295590415708,-0.24805177761353697
0.24525,-0.1196328850098053,-0.2514674515144305
0.245375,-0.1167022140024579,-0.2539045810004734
0.2455,-0.11230620749143677,-0.2568402142450252
0.245625,-0.10937553648408935,-0.25975738438740986
0.24575,-0.1059564203088507,-0.2626930176319616
0.245875,-0.10351419446939453,-0.26465010646166276
0.246,-0.10009507829415587,-0.26708723594770567
0.246125,-0.09667596211891721,-0.271001413607108
0.24625,-0.09228900088878297,-0.27391858374949274
0.246375,-0.0898467750493268,-0.2753956319228521
0.2465,-0.08545076853830566,-0.27637417633770267
0.246625,-0.08300854269884948,-0.27929134648008735
0.24675,-0.0791009813557196,-0.280269890894938
0.246875,-0.07714720068415465,-0.2817469390682973
0.247,-0.07275119417313353,-0.2832055241394897
0.247125,-0.07079741350156858,-0.28418406855434025
0.24725,-0.06592200710354311,-0.2856426536255326
0.247375,-0.06347978126408692,-0.28807978311157556
0.2475,-0.06103755542463074,-0.2900368719412767
0.247625,-0.05761843924939209,-0.2895568312849349
0.24775,-0.05419932307415344,-0.28905832752642613
0.247875,-0.051757097234697264,-0.2900368719412767
0.248,-0.048826426227349846,-0.28905832752642613
0.248125,-0.04589575522000243,-0.2900368719412767
0.24825,-0.04345352938054625,-0.28905832752642613
0.248375,-0.04101130354109007,-0.2895568312849349
0.2485,-0.03760123264673829,-0.28905832752642613
0.248625,-0.03564745197517335,-0.2895568312849349
0.24875,-0.0322283357999347,-0.2895568312849349
0.248875,-0.02929766479258728,-0.28807978311157556
0.249,-0.0268554389531311,-0.28807978311157556
0.249125,-0.024413213113674923,-0.287101238696725
0.24925,-0.021970987274218742,-0.2861411573840414
0.249375,-0.021482542106327506,-0.2851626129691908
0.2495,-0.01757498076319762,-0.28418406855434025
0.249625,-0.015621200091632675,-0.2827070203809809
0.24975,-0.012699574365172134,-0.2822269797246391
0.249875,-0.011234238861498427,-0.2822269797246391
0.25,-0.008303567854151012,-0.2822269797246391
0.250125,-0.006838232350477303,-0.280269890894938
0.25025,-0.005861342014694832,-0.2783128020652368
0.250375,-0.004396006511021124,-0.2783128020652368
0.2505,-0.001953780671564944,-0.2758756725791939
0.250625,-0.001953780671564944,-0.2744170875080015
0.25075,0.000976890335782472,-0.27245999867830034
0.250875,0.001465335503673708,-0.2714814542634498
0.251,0.003907561343129888,-0.26952436543374864
0.251125,0.0034191161752386515,-0.26904432477740686
0.25125,0.005372896846803595,-0.2680657803625563
0.251375,0.005861342014694832,-0.2636715620468122
0.2515,0.006838232350477303,-0.2622129769756198
0.251625,0.007326677518368539,-0.26025588814591866
0.25175,0.008792013022042248,-0.2582987993162175
0.251875,0.008303567854151012,-0.254883125415324
0.252,0.009280458189933482,-0.2519474921707723
0.252125,0.009280458189933482,-0.24903032202838757
0.25225,0.01074579369360719,-0.24657472944017764
0.252375,0.01074579369360719,-0.24511614436898527
0.2525,0.011234238861498427,-0.24267901488294233
0.252625,0.01074579369360719,-0.23828479656719823
0.25275,0.011722684029389663,-0.23389057825145415
0.252875,0.01074579369360719,-0.23047490435056064
0.253,0.0122111291972809,-0.22558218227630777
0.253125,0.011234238861498427,-0.22168646771907247
0.25325,0.01318801953306337,-0.2167937456448196
0.253375,0.012699574365172134,-0.21191948667273372
0.2535,0.01318801953306337,-0.20800530901333142
0.253625,0.012699574365172134,-0.20313105004124554
0.25375,0.01318801953306337,-0.1972597835521421
0.253875,0.01318801953306337,-0.19042843575035506
0.254,0.013667419420067732,-0.18457563236341862
0.254125,0.013667419420067732,-0.17870436587431518
0.25425,0.014644309755850203,-0.17187301807252817
0.254375,0.013667419420067732,-0.16504167027074113
0.2545,0.014155864587958967,-0.15723177805410354
0.254625,0.014644309755850203,-0.1503819671501495
0.25475,0.014644309755850203,-0.14159353051866133
0.254875,0.014644309755850203,-0.13623923089023368
0.255,0.01513275492374144,-0.1279308349150873
0.255125,0.014644309755850203,-0.11914239828359911
0.25525,0.014644309755850203,-0.11133250606696152
0.255375,0.013667419420067732,-0.10352261385032392
0.2555,0.014155864587958967,-0.09473417721883574
0.255625,0.014644309755850203,-0.08594574058734758
0.25575,0.014644309755850203,-0.07617875954100883
0.255875,0.014644309755850203,-0.06739032290952066
0.256,0.014644309755850203,-0.05762334186318191
0.256125,0.013667419420067732,-0.04981344964654431
0.25625,0.014644309755850203,-0.04100654991288914
0.256375,0.013667419420067732,-0.02930094313901624
0.2565,0.014644309755850203,-0.020014002749019284
0.256625,0.014644309755850203,-0.009766981046338746
0.25675,0.015621200091632675,0.0014585850711923648
0.256875,0.014644309755850203,0.01074552546118932
0.257,0.014644309755850203,0.022469595337229215
0.257125,0.014644309755850203,0.034175202111102115
0.25725,0.01513275492374144,0.04394218315744086
0.257375,0.014644309755850203,0.053709164203779615
0.2575,0.015621200091632675,0.06445468966496894
0.257625,0.014644309755850203,0.07520021512615825
0.25775,0.01513275492374144,0.084967196172497
0.257875,0.014644309755850203,0.09473417721883574
0.258,0.014644309755850203,0.10352261385032392
0.258125,0.014644309755850203,0.1123110504818121
0.25825,0.01513275492374144,0.12207803152815085
0.258375,0.01513275492374144,0.130866468159639
0.2585,0.01610964525952391,0.1391564010326184
0.258625,0.01513275492374144,0.14550770817806363
0.25875,0.01610964525952391,0.15527468922440238
0.258875,0.015621200091632675,0.1660202146855917
0.259,0.016598090427415148,0.17480865131707987
0.259125,0.015621200091632675,0.1865142580909528
0.25925,0.016598090427415148,0.1972597835521421
0.259375,0.016598090427415148,0.20702676459848085
0.2595,0.017086535595306384,0.21972937888937133
0.259625,0.016598090427415148,0.2324135300780948
0.25975,0.017086535595306384,0.24218051112443353
0.259875,0.016598090427415148,0.25342454034413164
0.26,0.017086535595306384,0.26562865087651333
0.260125,0.016598090427415148,0.2783128020652368
0.26025,0.017086535595306384,0.2900368719412767
0.260375,0.015621200091632675,0.30028389364395724
0.2605,0.016598090427415148,0.3125064672785059
0.260625,0.01513275492374144,0.32323352963752827
0.26075,0.015621200091632675,0.3349575995135681
0.260875,0.014644309755850203,0.34618316563109924
0.261,0.01513275492374144,0.3544915616062456
0.261125,0.014155864587958967,0.362799957581392
0.26125,0.014155864587958967,0.37256693862773077
0.261375,0.01318801953306337,0.3828139603304113
0.2615,0.01318801953306337,0.38964530813219833
0.261625,0.012699574365172134,0.3974552003488359
0.26175,0.01318801953306337,0.4033264668379394
0.261875,0.012699574365172134,0.4072221813951747
0.262,0.01318801953306337,0.41211490346942753
0.262125,0.012699574365172134,0.41503207361181227
0.26225,0.01318801953306337,0.41503207361181227
0.262375,0.0122111291972809,0.4140535291969617
0.2625,0.01318801953306337,0.41503207361181227
0.262625,0.012699574365172134,0.41503207361181227
0.26275,0.014155864587958967,0.41211490346942753
0.262875,0.013667419420067732,0.4101578146397264
0.263,0.014644309755850203,0.40820072581002526
0.263125,0.013667419420067732,0.4072221813951747
0.26325,0.014644309755850203,0.4062436369803241
0.263375,0.014644309755850203,0.40526509256547355
0.2635,0.015621200091632675,0.4047850519091317
0.263625,0.015621200091632675,0.40430501125278995
0.26375,0.01610964525952391,0.4072221813951747
0.263875,0.014644309755850203,0.4101578146397264
0.264,0.01610964525952391,0.41259494412576936
0.264125,0.015621200091632675,0.41503207361181227
0.26425,0.01610964525952391,0.4169891624415134
0.264375,0.015621200091632675,0.4174876662000222
0.2645,0.016598090427415148,0.4174876662000222
0.264625,0.016598090427415148,0.41601061802666284
0.26475,0.016598090427415148,0.41503207361181227
0.264875,0.015621200091632675,0.41211490346942753
0.265,0.016598090427415148,0.41113635905457696
0.265125,0.015621200091632675,0.4101578146397264
0.26525,0.016598090427415148,0.40820072581002526
0.265375,0.016598090427415148,0.4072221813951747
0.2655,0.016598090427415148,0.40526509256547355
0.265625,0.015621200091632675,0.4047850519091317
0.26575,0.01610964525952391,0.4033264668379394
0.265875,0.016598090427415148,0.4023479224230888
0.266,0.01610964525952391,0.40136937800823824
0.266125,0.014644309755850203,0.3979537041073447
0.26625,0.01610964525952391,0.3974552003488359
0.266375,0.014644309755850203,0.39647665593398534
0.2665,0.01513275492374144,0.39551657462130174
0.266625,0.013667419420067732,0.39306098203309187
0.26675,0.013667419420067732,0.3906238525470489
0.266875,0.01318801953306337,0.3876882193024972
0.267,0.01318801953306337,0.3837925047452619
0.267125,0.012699574365172134,0.37744119759981665
0.26725,0.01318801953306337,0.37060984979802963
0.267375,0.011234238861498427,0.36377850199624256
0.2675,0.011722684029389663,0.35644865043594676
0.267625,0.01074579369360719,0.3486387582193092
0.26775,0.011722684029389663,0.339850321587821
0.267875,0.011234238861498427,0.3310618849563328
0.268,0.0122111291972809,0.3212949039099941
0.268125,0.01074579369360719,0.3115279228636553
0.26825,0.011722684029389663,0.3022409824736584
0.268375,0.01074579369360719,0.29247400142731966
0.2685,0.012699574365172134,0.2807683946534467
0.268625,0.012699574365172134,0.26854582101889807
0.26875,0.01318801953306337,0.25732025490136695
0.268875,0.012699574365172134,0.2441375999541347
0.269,0.01318801953306337,0.2314534487654112
0.269125,0.012699574365172134,0.2167937456448196
0.26925,0.013667419420067732,0.20215250562639497
0.269375,0.013667419420067732,0.1865142580909528
0.2695,0.014155864587958967,0.17089447365767757
0.269625,0.014644309755850203,0.15527468922440238
0.26975,0.014644309755850203,0.1357407271317249
0.269875,0.013667419420067732,0.1162067650390474
0.27,0.014644309755850203,0.10254406943547334
0.270125,0.014644309755850203,0.08594574058734758
0.27025,0.01513275492374144,0.06932894863705481
0.270375,0.014644309755850203,0.053709164203779615
0.2705,0.015621200091632675,0.03808937977050442
0.270625,0.014644309755850203,0.023429676649912797
0.27075,0.014644309755850203,0.009766981046338746
0.270875,0.013667419420067732,-0.004394218315744086
0.271,0.014644309755850203,-0.01855541767782692
0.271125,0.014644309755850203,-0.03221811328140097
0.27125,0.015621200091632675,-0.04492072757229144
0.271375,0.014644309755850203,-0.05762334186318191
0.2715,0.014644309755850203,-0.07128603746675596
0.271625,0.014644309755850203,-0.08398865175764643
0.27175,0.013667419420067732,-0.09765134736122048
0.271875,0.014644309755850203,-0.11133250606696152
0.272,0.015621200091632675,-0.12401665725568499
0.272125,0.014644309755850203,-0.13867636037627662
0.27225,0.01610964525952391,-0.15331760039470124
0.272375,0.015621200091632675,-0.1669987591004423
0.2725,0.01610964525952391,-0.17870436587431518
0.272625,0.014644309755850203,-0.19042843575035506
0.27275,0.016598090427415148,-0.20313105004124554
0.272875,0.016598090427415148,-0.21483665681511846
0.273,0.016598090427415148,-0.22510214161996597
0.273125,0.017086535595306384,-0.23486912266630472
0.27325,0.01757498076319762,-0.2431590555392841
0.273375,0.018551871098980093,-0.2519474921707723
0.2735,0.018063425931088856,-0.2607359288022605
0.273625,0.01757498076319762,-0.26854582101889807
0.27375,0.01952876143476256,-0.2734385430931509
0.273875,0.01904031626687133,-0.2783128020652368
0.274,0.020505651770545034,-0.28418406855434025
0.274125,0.020017206602653798,-0.2895568312849349
0.27425,0.02099409693843627,-0.29395104960067897
0.274375,0.020505651770545034,-0.2973667235015725
0.2745,0.021970987274218742,-0.30078239740246604
0.274625,0.02245943244210998,-0.3051766157182101
0.27475,0.02343632277789245,-0.3090907933776124
0.274875,0.02245943244210998,-0.3129865079348477
0.275,0.023924767945783687,-0.31542363742089063
0.275125,0.02343632277789245,-0.3183592706654424
0.27525,0.024413213113674923,-0.32275348898118644
0.275375,0.024413213113674923,-0.3251906184672294
0.2755,0.024413213113674923,-0.3291047961266317
0.275625,0.02490165828156616,-0.333000510683867
0.27575,0.025878548617348632,-0.3364346476869275
0.275875,0.02490165828156616,-0.3408288660026716
0.276,0.025878548617348632,-0.34570312497475747
0.276125,0.024413213113674923,-0.34961730263415974
0.27625,0.025390103449457396,-0.3530329765350533
0.276375,0.024413213113674923,-0.3574271948507974
0.2765,0.026366993785239868,-0.36182141316654143
0.276625,0.02490165828156616,-0.36621563148228553
0.27675,0.02490165828156616,-0.3710898904543714
0.276875,0.024413213113674923,-0.3754841087701155
0.277,0.026366993785239868,-0.37987832708585956
0.277125,0.024413213113674923,-0.38477104916011245
0.27725,0.02490165828156616,-0.3911223563055577
0.277375,0.02490165828156616,-0.39647665593398534
0.2775,0.02490165828156616,-0.39941228917853705
0.277625,0.024413213113674923,-0.40430501125278995
0.27775,0.02490165828156616,-0.4091792702248758
0.277875,0.024413213113674923,-0.4140535291969617
0.278,0.02490165828156616,-0.41894625127121454
0.278125,0.024413213113674923,-0.4223619251721081
0.27825,0.02490165828156616,-0.4267561434878522
0.278375,0.02343632277789245,-0.4326089468747886
0.2785,0.024413213113674923,-0.43848021336389204
0.278625,0.022947877610001215,-0.44237592792112734
0.27875,0.023924767945783687,-0.4457916018220209
0.278875,0.022947877610001215,-0.45020428323993195
0.279,0.023924767945783687,-0.4536199571408255
0.279125,0.02343632277789245,-0.4575156716980608
0.27925,0.02343632277789245,-0.46142984935746306
0.279375,0.02245943244210998,-0.46386697884350603
0.2795,0.023924767945783687,-0.46680261208805773
0.279625,0.02245943244210998,-0.47069832664529304
0.27975,0.02343632277789245,-0.47509254496103714
0.279875,0.022947877610001215,-0.477548137549247
0.28,0.023924767945783687,-0.4785082188619306
0.280125,0.02245943244210998,-0.48096381145014055
0.28025,0.023924767945783687,-0.4829024371776747
0.280375,0.02245943244210998,-0.4838809815925253
0.2805,0.02343632277789245,-0.48583807042222643
0.280625,0.022947877610001215,-0.4863365741807352
0.28075,0.024413213113674923,-0.486816614837077
0.280875,0.024413213113674923,-0.4882751999082694
0.281,0.02490165828156616,-0.4912108331528211
0.281125,0.024413213113674923,-0.4912108331528211
0.28125,0.024413213113674923,-0.49073079249647933
0.281375,0.024413213113674923,-0.4912108331528211
0.2815,0.02490165828156616,-0.4916908738091629
0.281625,0.025390103449457396,-0.4912108331528211
0.28175,0.026366993785239868,-0.4912108331528211
0.281875,0.025390103449457396,-0.4912108331528211
0.282,0.026366993785239868,-0.48975224808162876
0.282125,0.025878548617348632,-0.49073079249647933
0.28225,0.0268554389531311,-0.4912108331528211
0.282375,0.026366993785239868,-0.49023228873797053
0.2825,0.02832077445680481,-0.4882751999082694
0.282625,0.0268554389531311,-0.4882751999082694
0.28275,0.027832329288913573,-0.486816614837077
0.282875,0.0268554389531311,-0.48535802976588466
0.283,0.027832329288913573,-0.4843794853510341
0.283125,0.0268554389531311,-0.4819423558649911
0.28325,0.02832077445680481,-0.47998526703529
0.283375,0.02832077445680481,-0.4794867632767812
0.2835,0.02832077445680481,-0.4794867632767812
0.283625,0.0268554389531311,-0.4770496337907383
0.28375,0.027832329288913573,-0.4755910487195459
0.283875,0.026366993785239868,-0.4746125043046953
0.284,0.027343884121022337,-0.4721753748186524
0.284125,0.026366993785239868,-0.47119683040380184
0.28425,0.0268554389531311,-0.4702182859889512
0.284375,0.025390103449457396,-0.4677811565029083
0.2845,0.02490165828156616,-0.46532556391469837
0.284625,0.024413213113674923,-0.4633869381871642
0.28475,0.02490165828156616,-0.4628884344286554
0.284875,0.024413213113674923,-0.4604513049426125
0.285,0.02490165828156616,-0.4575156716980608
0.285125,0.024413213113674923,-0.4560570866268684
0.28525,0.023924767945783687,-0.4531214533823167
0.285375,0.02245943244210998,-0.45116436455261555
0.2855,0.02245943244210998,-0.4482471944102308
0.285625,0.02245943244210998,-0.4457916018220209
0.28575,0.02245943244210998,-0.44237592792112734
0.285875,0.021482542106327506,-0.4404373021935932
0.286,0.02245943244210998,-0.43848021336389204
0.286125,0.02099409693843627,-0.43456603570448976
0.28625,0.020505651770545034,-0.43067032114725445
0.286375,0.020505651770545034,-0.42773468790270275
0.2865,0.02099409693843627,-0.42286042893061687
0.286625,0.020017206602653798,-0.41894625127121454
0.28675,0.02099409693843627,-0.41503207361181227
0.286875,0.020505651770545034,-0.4101578146397264
0.287,0.02099409693843627,-0.4057635963239823
0.287125,0.020505651770545034,-0.40184941866458
0.28725,0.01904031626687133,-0.3979537041073447
0.287375,0.020505651770545034,-0.39258094137675004
0.2875,0.020505651770545034,-0.385749593574963
0.287625,0.020505651770545034,-0.3813553752592189
0.28775,0.02099409693843627,-0.3754841087701155
0.287875,0.020505651770545034,-0.37011134603952084
0.288,0.021482542106327506,-0.3642585426525844
0.288125,0.020505651770545034,-0.35840573926564795
0.28825,0.02245943244210998,-0.35351301719139505
0.288375,0.021482542106327506,-0.3481402544608004
0.2885,0.021970987274218742,-0.34276749173020576
0.288625,0.02245943244210998,-0.33691468834326926
0.28875,0.023924767945783687,-0.33008334054148225
0.288875,0.022947877610001215,-0.3247105778108876
0.289,0.02343632277789245,-0.31738072625059177
0.289125,0.022947877610001215,-0.3115279228636553
0.28925,0.024413213113674923,-0.3056566563745519
0.289375,0.024413213113674923,-0.29882530857276485
0.2895,0.024413213113674923,-0.29345254584217023
0.289625,0.024413213113674923,-0.28905832752642613
0.28975,0.025878548617348632,-0.2832055241394897
0.289875,0.024413213113674923,-0.27735272075255324
0.29,0.025878548617348632,-0.2714814542634498
0.290125,0.025390103449457396,-0.2666071952913639
0.29025,0.026366993785239868,-0.2607359288022605
0.290375,0.026366993785239868,-0.2558616698301746
0.2905,0.0268554389531311,-0.2509689477559217
0.290625,0.026366993785239868,-0.24609468878383584
0.29075,0.0268554389531311,-0.24120196670958297
0.290875,0.026366993785239868,-0.23876483722354003
0.291,0.027832329288913573,-0.2363277077374971
0.291125,0.027343884121022337,-0.2314534487654112
0.29125,0.02832077445680481,-0.22656072669115834
0.291375,0.0268554389531311,-0.2246036378614572
0.2915,0.027832329288913573,-0.2207079233042219
0.291625,0.0268554389531311,-0.21777229005967016
0.29175,0.02832077445680481,-0.21483665681511846
0.291875,0.027343884121022337,-0.21191948667273372
0.292,0.028809219624696045,-0.20996239784303258
0.292125,0.02832077445680481,-0.208983853428182
0.29225,0.02832077445680481,-0.20800530901333142
0.292375,0.02832077445680481,-0.2041095944560961
0.2925,0.028809219624696045,-0.20215250562639497
0.292625,0.02832077445680481,-0.20019541679669384
0.29275,0.028809219624696045,-0.19921687238184324
0.292875,0.02832077445680481,-0.19823832796699267
0.293,0.029786109960478518,-0.1972597835521421
0.293125,0.02929766479258728,-0.19628123913729154
0.29325,0.030274555128369754,-0.19628123913729154
0.293375,0.030274555128369754,-0.19628123913729154
0.2935,0.03173989063204346,-0.19628123913729154
0.293625,0.031251445464152226,-0.1972597835521421
0.29375,0.0322283357999347,-0.19628123913729154
0.293875,0.0322283357999347,-0.19628123913729154
0.294,0.03320522613571717,-0.19628123913729154
0.294125,0.03271678096782593,-0.1972597835521421
0.29425,0.03418211647149964,-0.19823832796699267
0.294375,0.03418211647149964,-0.19921687238184324
0.2945,0.035159006807282116,-0.20019541679669384
0.294625,0.03613589714306459,-0.20313105004124554
0.29475,0.03613589714306459,-0.2050696757687797
0.294875,0.03613589714306459,-0.20604822018363028
0.295,0.03564745197517335,-0.20702676459848085
0.295125,0.03613589714306459,-0.208983853428182
0.29525,0.03662434231095582,-0.20996239784303258
0.295375,0.03613589714306459,-0.21191948667273372
0.2955,0.03760123264673829,-0.21385811240026786
0.295625,0.03662434231095582,-0.21581520122996903
0.29575,0.038089677814629526,-0.21777229005967016
0.295875,0.03613589714306459,-0.22168646771907247
0.296,0.03662434231095582,-0.22510214161996597
0.296125,0.03662434231095582,-0.22558218227630777
0.29625,0.03662434231095582,-0.2275392711060089
0.296375,0.03613589714306459,-0.2314534487654112
0.2965,0.03613589714306459,-0.23339207449294536
0.296625,0.034670561639390876,-0.2363277077374971
0.29675,0.034670561639390876,-0.23828479656719823
0.296875,0.03418211647149964,-0.2402418853968994
0.297,0.034670561639390876,-0.2441375999541347
0.297125,0.03418211647149964,-0.2470732331986864
0.29725,0.03418211647149964,-0.25048890709957994
0.297375,0.03320522613571717,-0.25292603658562285
0.2975,0.03320522613571717,-0.2553631660716658
0.297625,0.0322283357999347,-0.2582987993162175
0.29775,0.03271678096782593,-0.26025588814591866
0.297875,0.0322283357999347,-0.2626930176319616
0.298,0.03271678096782593,-0.26562865087651333
0.298125,0.0322283357999347,-0.26854582101889807
0.29825,0.03271678096782593,-0.2714814542634498
0.298375,0.0322283357999347,-0.2753956319228521
0.2985,0.0322283357999347,-0.277832761408895
0.298625,0.031251445464152226,-0.2783128020652368
0.29875,0.03271678096782593,-0.28124843530978855
0.298875,0.0322283357999347,-0.28418406855434025
0.299,0.03271678096782593,-0.2856426536255326
0.299125,0.0322283357999347,-0.28807978311157556
0.29925,0.03271678096782593,-0.28905832752642613
0.299375,0.03320522613571717,-0.2900368719412767
0.2995,0.03320522613571717,-0.29199396077097783
0.299625,0.03320522613571717,-0.29588967532821314
0.29975,0.03418211647149964,-0.2978467641579143
0.299875,0.03320522613571717,-0.2978467641579143
0.3,0.03418211647149964,-0.29882530857276485
0.300125,0.03271678096782593,-0.29980385298761547
0.30025,0.03418211647149964,-0.30078239740246604
0.300375,0.03418211647149964,-0.3027394862321672
0.3005,0.03418211647149964,-0.3027394862321672
0.300625,0.03418211647149964,-0.3027394862321672
0.30075,0.03418211647149964,-0.3046965750618683
0.300875,0.03320522613571717,-0.3056566563745519
0.301,0.03418211647149964,-0.3056566563745519
0.301125,0.03418211647149964,-0.3051766157182101
0.30125,0.03418211647149964,-0.3051766157182101
0.301375,0.03418211647149964,-0.3051766157182101
0.3015,0.034670561639390876,-0.3051766157182101
0.301625,0.03418211647149964,-0.3051766157182101
0.30175,0.034670561639390876,-0.30371803064701774
0.301875,0.03418211647149964,-0.3017609418173166
0.302,0.034670561639390876,-0.3017609418173166
